 0.1033       39.34
 0.1324       34.05
 0.1616       26.51
 0.1908       33.60
 0.2199       36.42
 0.2491       36.88
 0.2782       33.24
 0.3074       38.19
 0.3366       48.42
 0.3657       40.19
 0.3949       36.03
 0.4240       35.11
 0.4532       45.30
 0.4824       44.10
 0.5115       40.98
 0.5407       43.68
 0.5698       43.95
 0.5990       44.54
 0.6282       50.50
 0.6573       49.91
 0.6865       47.39
 0.7156       46.90
 0.7448       44.37
 0.7740       44.24
 0.8031       41.11
 0.8323       44.54
 0.8614       42.13
 0.8906       46.23
 0.9198       48.58
 0.9489       47.02
 0.9781       46.40
 1.0072       45.10
 1.0364       43.24
 1.0656       42.20
 1.0947       46.80
 1.1239       45.57
 1.1530       44.17
 1.1822       44.40
 1.2114       48.85
 1.2405       53.85
 1.2697       41.77
 1.2988       40.41
 1.3280       35.51
 1.3572       32.99
 1.3863       46.17
 1.4155       45.81
 1.4446       52.09
 1.4738       46.76
 1.5030       43.72
 1.5321       45.47
 1.5613       44.51
 1.5904       56.86
 1.6196       44.87
 1.6488       43.12
 1.6779       47.16
 1.7071       48.80
 1.7362       44.12
 1.7654       43.00
 1.7946       42.16
 1.8237       36.91
 1.8529       43.74
 1.8820       45.00
 1.9112       52.06
 1.9404       46.74
 1.9695       46.00
 1.9987       43.25
 2.0278       37.43
 2.0570       48.28
 2.0862       57.56
 2.1153       43.56
 2.1445       49.82
 2.1736       44.09
 2.2028       47.99
 2.2320       49.99
 2.2611       49.25
 2.2903       61.69
 2.3194       52.00
 2.3486       51.63
 2.3778       44.61
 2.4069       39.08
 2.4361       40.96
 2.4652       51.79
 2.4944       57.46
 2.5236       45.48
 2.5527       53.90
 2.5819       80.26
 2.6110       45.07
 2.6402       42.49
 2.6694       53.76
 2.6985       48.94
 2.7277       53.60
 2.7568       55.16
 2.7860       49.78
 2.8152       44.10
 2.8443       50.02
 2.8735       48.02
 2.9026       53.40
 2.9318       58.61
 2.9610       51.53
 2.9901       46.90
 3.0193       53.51
 3.0484       47.36
 3.0776       44.67
 3.1068       47.17
 3.1359       51.67
 3.1651       47.86
 3.1942       52.71
 3.2234       48.66
 3.2526       51.60
 3.2817       47.87
 3.3109       49.47
 3.3400       46.00
 3.3692       46.44
 3.3984       47.91
 3.4275       46.21
 3.4567       49.67
 3.4858       53.10
 3.5150       59.96
 3.5442       60.82
 3.5733       55.16
 3.6025       56.88
 3.6316       51.75
 3.6608       47.34
 3.6900       53.32
 3.7191       55.56
 3.7483       50.66
 3.7774       54.36
 3.8066       48.90
 3.8358       48.56
 3.8649       48.86
 3.8941       57.22
 3.9232       57.16
 3.9524       48.06
 3.9816       49.70
 4.0107       58.13
 4.0399       57.54
 4.0690       50.38
 4.0982       40.15
 4.1274       47.86
 4.1565       50.53
 4.1857       41.06
 4.2148       51.61
 4.2440       52.93
 4.2732       50.45
 4.3023       44.49
 4.3315       49.38
 4.3606       47.77
 4.3898       53.55
 4.4190       64.95
 4.4481       53.56
 4.4773       43.35
 4.5064       52.33
 4.5356       48.77
 4.5648       51.53
 4.5939       51.11
 4.6231       50.10
 4.6522       57.30
 4.6814       58.92
 4.7106       50.60
 4.7397       51.89
 4.7689       47.23
 4.7980       53.75
 4.8272       54.97
 4.8564       59.92
 4.8855       58.01
 4.9147       53.95
 4.9438       44.30
 4.9730       63.90
 5.0022       59.82
 5.0313       54.18
 5.0605       38.17
 5.0896       57.34
 5.1188       48.91
 5.1480       60.09
 5.1771       59.95
 5.2063       49.89
 5.2354       48.88
 5.2646       49.26
 5.2938       56.64
 5.3229       48.87
 5.3521       52.44
 5.3812       44.66
 5.4104       50.81
 5.4396       62.89
 5.4687       58.39
 5.4979       61.43
 5.5270       65.07
 5.5562       58.45
 5.5854       60.70
 5.6145       63.00
 5.6437       59.96
 5.6728       52.84
 5.7020       55.54
 5.7312       50.41
 5.7603       55.17
 5.7895       59.81
 5.8186       57.46
 5.8478       48.78
 5.8770       63.31
 5.9061       68.68
 5.9353       68.95
 5.9644       60.53
 5.9936       53.79
 6.0228       61.62
 6.0519       60.61
 6.0811       59.21
 6.1102       57.59
 6.1394       54.09
 6.1686       52.98
 6.1977       64.82
 6.2269       76.77
 6.2560       71.75
 6.2852       59.76
 6.3144       55.53
 6.3435       67.98
 6.3727       75.63
 6.4018       74.99
 6.4310       86.08
 6.4602       85.31
 6.4893       78.42
 6.5185       71.11
 6.5476       68.72
 6.5768       64.36
 6.6060       59.56
 6.6351       69.15
 6.6643       79.48
 6.6934       84.36
 6.7226       82.41
 6.7518       77.57
 6.7809       71.69
 6.8101       79.00
 6.8392       91.34
 6.8684       88.57
 6.8976       81.09
 6.9267       92.20
 6.9559       84.95
 6.9850       71.90
 7.0142       90.27
 7.0434       95.14
 7.0725       87.37
 7.1017       92.12
 7.1308       93.56
 7.1600      106.13
 7.1892      111.74
 7.2183      113.49
 7.2475      114.00
 7.2766      119.34
 7.3058      121.00
 7.3350      123.34
 7.3641      144.50
 7.3933      153.19
 7.4224      154.00
 7.4516      151.56
 7.4808      185.50
 7.5099      234.49
 7.5391      234.62
 7.5682      283.77
 7.5974      342.55
 7.6266      375.15
 7.6557      396.41
 7.6849      519.37
 7.7140      775.40
 7.7432     1065.46
 7.7724     1529.28
 7.8015     1868.32
 7.8307     2313.12
 7.8598     2775.26
 7.8890     3183.69
 7.9182     3645.31
 7.9473     3981.72
 7.9765     4408.92
 8.0056     4721.52
 8.0348     5024.99
 8.0640     5308.69
 8.0931     5535.49
 8.1223     5808.04
 8.1514     6182.93
 8.1806     6167.65
 8.2098     6310.04
 8.2389     6464.46
 8.2681     6448.40
 8.2972     6545.84
 8.3264     6586.08
 8.3556     6556.60
 8.3847     6678.51
 8.4139     6622.93
 8.4430     6746.88
 8.4722     6685.11
 8.5014     6659.58
 8.5305     6588.08
 8.5597     6433.34
 8.5888     6551.42
 8.6180     6540.03
 8.6472     6488.58
 8.6763     6466.04
 8.7055     6379.98
 8.7346     6346.97
 8.7638     6314.12
 8.7930     6409.19
 8.8221     6402.74
 8.8513     6409.94
 8.8804     6361.07
 8.9096     6303.39
 8.9388     6416.17
 8.9679     6294.17
 8.9971     6299.09
 9.0262     6243.47
 9.0554     6286.64
 9.0846     6236.37
 9.1137     6168.11
 9.1429     6163.01
 9.1720     6117.25
 9.2012     6107.13
 9.2304     6109.97
 9.2595     6213.79
 9.2887     6190.18
 9.3178     6079.22
 9.3470     6102.59
 9.3762     6053.06
 9.4053     6072.59
 9.4345     6077.29
 9.4636     6016.43
 9.4928     5962.12
 9.5220     5994.69
 9.5511     5981.62
 9.5803     6006.68
 9.6094     6081.82
 9.6386     6046.76
 9.6678     6011.49
 9.6969     6006.82
 9.7261     6061.87
 9.7552     6078.23
 9.7844     6053.25
 9.8136     6059.91
 9.8427     5996.15
 9.8719     5878.62
 9.9010     5946.88
 9.9302     5906.35
 9.9594     5952.37
 9.9885     6000.46
10.0177     5955.02
10.0468     5941.93
10.0760     6010.37
10.1052     5994.78
10.1343     5945.20
10.1635     5898.41
10.1926     5932.30
10.2218     5974.20
10.2510     5956.28
10.2801     5886.34
10.3093     5885.33
10.3384     5895.25
10.3676     5879.09
10.3968     5968.11
10.4259     6004.64
10.4551     5960.23
10.4842     6069.96
10.5134     6041.32
10.5426     5946.74
10.5717     5956.72
10.6009     5932.28
10.6300     5802.08
10.6592     5889.45
10.6884     6012.16
10.7175     5964.02
10.7467     5939.76
10.7758     5863.27
10.8050     5810.83
10.8342     5900.86
10.8633     5921.57
10.8925     6007.97
10.9216     5995.71
10.9508     5938.53
10.9800     5865.00
11.0091     5831.29
11.0383     5907.75
11.0674     5978.29
11.0966     5969.33
11.1258     5998.29
11.1549     5945.76
11.1841     5947.29
11.2132     6022.86
11.2424     5912.79
11.2716     5897.10
11.3007     5967.21
11.3299     6023.91
11.3590     6053.40
11.3882     6097.66
11.4174     5966.61
11.4465     5838.64
11.4757     5936.38
11.5048     6038.25
11.5340     5912.19
11.5632     6024.93
11.5923     6127.84
11.6215     6126.52
11.6506     6088.17
11.6798     6041.79
11.7090     6183.22
11.7381     6077.61
11.7673     5985.37
11.7964     6053.88
11.8256     6203.42
11.8548     6251.59
11.8839     6132.52
11.9131     6093.98
11.9422     6156.68
11.9714     6050.64
12.0006     6102.48
12.0297     6065.91
12.0589     6169.41
12.0880     6173.71
12.1172     6206.13
12.1464     6253.44
12.1755     6129.55
12.2047     6317.78
12.2338     6172.30
12.2630     6195.56
12.2922     6197.03
12.3213     6152.17
12.3505     6231.52
12.3796     6164.89
12.4088     6205.36
12.4380     6202.11
12.4671     6164.97
12.4963     6116.93
12.5254     6296.32
12.5546     6172.15
12.5838     6230.81
12.6129     6183.42
12.6421     6182.53
12.6712     6191.34
12.7004     6307.56
12.7296     6240.59
12.7587     6160.43
12.7879     6137.35
12.8170     6106.62
12.8462     6169.31
12.8754     6128.62
12.9045     6135.21
12.9337     6184.72
12.9628     6121.92
12.9920     6106.99
13.0212     6267.12
13.0503     6269.35
13.0795     6268.02
13.1086     6196.06
13.1378     6137.75
13.1670     6248.14
13.1961     6180.10
13.2253     6319.55
13.2544     6256.77
13.2836     6172.18
13.3128     6088.18
13.3419     6148.41
13.3711     6159.49
13.4002     6058.60
13.4294     6012.35
13.4586     6193.95
13.4877     6289.93
13.5169     6171.97
13.5460     6167.55
13.5752     6254.09
13.6044     6205.61
13.6335     6031.07
13.6627     6014.87
13.6918     6140.52
13.7210     6237.65
13.7502     6234.92
13.7793     6030.41
13.8085     6134.19
13.8376     6047.56
13.8668     6084.52
13.8960     6113.63
13.9251     6389.34
13.9543     6290.85
13.9834     6168.15
14.0126     6254.30
14.0418     6079.60
14.0709     6197.35
14.1001     6153.08
14.1292     6265.84
14.1584     6265.25
14.1876     6217.95
14.2167     6284.50
14.2459     6150.10
14.2750     6184.21
14.3042     6187.53
14.3334     6098.25
14.3625     6291.60
14.3917     6343.90
14.4208     6273.18
14.4500     6131.43
14.4792     6276.49
14.5083     6255.80
14.5375     6352.51
14.5666     6298.47
14.5958     6280.00
14.6250     6288.09
14.6541     6142.10
14.6833     6141.70
14.7124     6139.53
14.7416     6183.65
14.7708     6323.48
14.7999     6244.39
14.8291     6289.81
14.8582     6212.97
14.8874     6330.86
14.9166     6207.93
14.9457     6194.78
14.9749     6250.31
15.0040     6217.96
15.0332     6205.21
15.0624     6228.59
15.0915     6245.20
15.1207     6150.97
15.1498     6199.71
15.1790     6140.05
15.2082     6113.90
15.2373     6269.36
15.2665     6193.06
15.2956     6250.88
15.3248     6183.87
15.3540     6197.06
15.3831     6226.01
15.4123     6150.46
15.4414     6268.87
15.4706     6240.29
15.4998     6395.72
15.5289     6278.93
15.5581     6114.00
15.5872     6089.15
15.6164     6241.15
15.6456     6164.62
15.6747     6105.77
15.7039     6188.82
15.7330     6126.99
15.7622     6156.58
15.7914     6179.56
15.8205     6301.98
15.8497     6257.66
15.8788     6306.50
15.9080     6263.71
15.9372     6240.47
15.9663     6280.51
15.9955     6323.24
16.0246     6278.71
16.0538     6156.54
16.0830     6174.87
16.1121     6369.14
16.1413     6285.55
16.1704     6292.47
16.1996     6289.66
16.2288     6286.37
16.2579     6186.78
16.2871     6171.59
16.3162     6298.87
16.3454     6278.13
16.3746     6261.59
16.4037     6273.71
16.4329     6274.28
16.4620     6296.55
16.4912     6226.54
16.5204     6241.74
16.5495     6355.05
16.5787     6333.90
16.6078     6362.86
16.6370     6292.85
16.6662     6225.21
16.6953     6190.64
16.7245     6129.11
16.7536     6245.14
16.7828     6315.52
16.8120     6255.24
16.8411     6183.18
16.8703     6169.10
16.8994     6184.12
16.9286     6242.18
16.9578     6268.76
16.9869     6207.83
17.0161     6203.94
17.0452     6279.92
17.0744     6268.78
17.1036     6251.22
17.1327     6247.04
17.1619     6203.20
17.1910     6187.49
17.2202     6200.46
17.2494     6245.04
17.2785     6235.63
17.3077     6231.91
17.3368     6334.69
17.3660     6316.83
17.3952     6273.56
17.4243     6332.81
17.4535     6359.98
17.4826     6297.99
17.5118     6172.44
17.5410     6221.53
17.5701     6261.48
17.5993     6245.89
17.6284     6300.48
17.6576     6281.00
17.6868     6238.86
17.7159     6283.51
17.7451     6239.35
17.7742     6222.89
17.8034     6172.54
17.8326     6227.94
17.8617     6335.40
17.8909     6273.17
17.9200     6257.71
17.9492     6368.85
17.9784     6391.42
18.0075     6386.71
18.0367     6426.55
18.0658     6286.32
18.0950     6299.83
18.1242     6287.00
18.1533     6267.28
18.1825     6321.22
18.2116     6390.96
18.2408     6281.25
18.2700     6263.31
18.2991     6250.23
18.3283     6378.45
18.3574     6362.88
18.3866     6449.04
18.4158     6374.29
18.4449     6359.73
18.4741     6372.56
18.5032     6343.36
18.5324     6271.82
18.5616     6323.78
18.5907     6247.14
18.6199     6293.07
18.6490     6476.30
18.6782     6341.68
18.7074     6243.88
18.7365     6310.81
18.7657     6359.49
18.7948     6228.30
18.8240     6321.92
18.8532     6324.59
18.8823     6365.33
18.9115     6277.25
18.9406     6230.61
18.9698     6292.40
18.9990     6417.08
19.0281     6376.92
19.0573     6169.82
19.0864     6338.16
19.1156     6431.61
19.1448     6374.49
19.1739     6417.40
19.2031     6389.39
19.2322     6364.37
19.2614     6252.68
19.2906     6307.88
19.3197     6404.43
19.3489     6130.97
19.3780     6206.43
19.4072     6166.90
19.4364     6367.64
19.4655     6271.32
19.4947     6290.15
19.5238     6358.34
19.5530     6270.46
19.5822     6364.61
19.6113     6454.61
19.6405     6376.00
19.6696     6428.98
19.6988     6282.73
19.7280     6342.37
19.7571     6372.24
19.7863     6313.98
19.8154     6292.54
19.8446     6422.61
19.8738     6507.89
19.9029     6395.60
19.9321     6331.81
19.9612     6372.29
19.9904     6314.23
20.0196     6312.49
20.0487     6313.66
20.0779     6265.84
20.1070     6229.33
20.1362     6385.99
20.1654     6388.39
20.1945     6325.22
20.2237     6293.38
20.2528     6385.86
20.2820     6454.67
20.3112     6389.25
20.3403     6334.99
20.3695     6285.51
20.3986     6173.69
20.4278     6251.08
20.4570     6379.48
20.4861     6316.10
20.5153     6304.55
20.5444     6320.56
20.5736     6399.06
20.6028     6440.54
20.6319     6385.94
20.6611     6342.45
20.6902     6336.37
20.7194     6311.58
20.7486     6345.43
20.7777     6315.49
20.8069     6286.11
20.8360     6300.51
20.8652     6298.76
20.8944     6282.03
20.9235     6420.30
20.9527     6377.11
20.9818     6291.47
21.0110     6348.92
21.0402     6310.20
21.0693     6337.41
21.0985     6319.86
21.1276     6391.42
21.1568     6271.39
21.1860     6267.57
21.2151     6314.11
21.2443     6297.91
21.2734     6306.89
21.3026     6421.15
21.3318     6332.89
21.3609     6350.61
21.3901     6338.52
21.4192     6312.59
21.4484     6508.66
21.4776     6341.63
21.5067     6515.29
21.5359     6331.43
21.5650     6252.20
21.5942     6395.04
21.6234     6231.94
21.6525     6290.66
21.6817     6254.96
21.7108     6336.77
21.7400     6355.35
21.7692     6401.28
21.7983     6271.21
21.8275     6254.65
21.8566     6361.63
21.8858     6452.74
21.9150     6353.99
21.9441     6275.23
21.9733     6338.34
22.0024     6379.51
22.0316     6364.81
22.0608     6396.18
22.0899     6424.50
22.1191     6483.29
22.1482     6440.47
22.1774     6376.56
22.2066     6384.13
22.2357     6396.85
22.2649     6399.92
22.2940     6375.75
22.3232     6417.58
22.3524     6451.37
22.3815     6394.15
22.4107     6390.82
22.4398     6441.32
22.4690     6412.69
22.4982     6327.61
22.5273     6322.59
22.5565     6373.47
22.5856     6422.02
22.6148     6458.20
22.6440     6408.06
22.6731     6374.21
22.7023     6386.91
22.7314     6415.44
22.7606     6368.51
22.7898     6393.45
22.8189     6385.23
22.8481     6366.00
22.8772     6346.59
22.9064     6321.80
22.9356     6448.24
22.9647     6350.07
22.9939     6365.98
23.0230     6370.05
23.0522     6340.65
23.0814     6365.86
23.1105     6320.85
23.1397     6270.93
23.1688     6319.72
23.1980     6266.03
23.2272     6341.01
23.2563     6421.38
23.2855     6530.51
23.3146     6438.99
23.3438     6308.53
23.3730     6536.73
23.4021     6385.04
23.4313     6318.53
23.4604     6315.82
23.4896     6349.08
23.5188     6269.57
23.5479     6399.42
23.5771     6298.41
23.6062     6432.16
23.6354     6402.89
23.6646     6623.13
23.6937     6501.06
23.7229     6459.44
23.7520     6489.06
23.7812     6493.58
23.8104     6425.73
23.8395     6477.51
23.8687     6465.21
23.8978     6447.69
23.9270     6447.03
23.9562     6341.33
23.9853     6396.41
24.0145     6397.40
24.0436     6402.64
24.0728     6395.56
24.1020     6347.81
24.1311     6296.21
24.1603     6328.44
24.1894     6403.73
24.2186     6516.54
24.2478     6530.51
24.2769     6401.72
24.3061     6376.05
24.3352     6351.78
24.3644     6275.60
24.3936     6308.55
24.4227     6360.47
24.4519     6338.71
24.4810     6307.72
24.5102     6286.51
24.5394     6332.32
24.5685     6451.42
24.5977     6505.63
24.6268     6396.50
24.6560     6359.79
24.6852     6447.96
24.7143     6394.89
24.7435     6474.64
24.7726     6423.07
24.8018     6375.96
24.8310     6520.15
24.8601     6459.23
24.8893     6357.69
24.9184     6382.71
24.9476     6338.19
24.9768     6444.02
25.0059     6427.17
25.0351     6412.58
25.0642     6425.91
25.0934     6383.08
25.1226     6328.02
25.1517     6472.66
25.1809     6371.59
25.2100     6518.99
25.2392     6516.03
25.2684     6391.11
25.2975     6525.56
25.3267     6282.55
25.3558     6453.13
25.3850     6446.66
25.4142     6463.15
25.4433     6516.86
25.4725     6451.66
25.5016     6422.05
25.5308     6433.52
25.5600     6442.73
25.5891     6550.80
25.6183     6542.04
25.6474     6503.73
25.6766     6545.70
25.7058     6646.70
25.7349     6473.54
25.7641     6496.07
25.7932     6376.41
25.8224     6446.59
25.8516     6582.82
25.8807     6648.42
25.9099     6500.68
25.9390     6537.48
25.9682     6493.11
25.9974     6459.64
26.0265     6469.28
26.0557     6561.61
26.0848     6583.99
26.1140     6585.13
26.1432     6612.02
26.1723     6571.09
26.2015     6591.88
26.2306     6612.71
26.2598     6564.97
26.2890     6472.64
26.3181     6415.57
26.3473     6485.13
26.3764     6477.33
26.4056     6442.26
26.4348     6560.09
26.4639     6592.12
26.4931     6571.29
26.5222     6602.45
26.5514     6504.71
26.5806     6431.43
26.6097     6493.20
26.6389     6528.38
26.6680     6497.13
26.6972     6443.36
26.7264     6474.56
26.7555     6520.19
26.7847     6466.07
26.8138     6465.58
26.8430     6444.50
26.8722     6398.91
26.9013     6366.91
26.9305     6367.73
26.9596     6452.08
26.9888     6556.06
27.0180     6491.23
27.0471     6507.83
27.0763     6476.25
27.1054     6511.41
27.1346     6464.70
27.1638     6366.81
27.1929     6375.78
27.2221     6393.38
27.2512     6488.51
27.2804     6488.25
27.3096     6531.22
27.3387     6451.38
27.3679     6482.73
27.3970     6608.83
27.4262     6562.77
27.4554     6480.53
27.4845     6378.56
27.5137     6434.66
27.5428     6420.58
27.5720     6426.73
27.6012     6492.29
27.6303     6548.69
27.6595     6540.13
27.6886     6552.29
27.7178     6570.80
27.7470     6484.90
27.7761     6464.50
27.8053     6559.71
27.8344     6524.30
27.8636     6546.66
27.8928     6631.19
27.9219     6588.23
27.9511     6537.75
27.9802     6421.33
28.0094     6582.92
28.0386     6634.79
28.0677     6400.56
28.0969     6659.88
28.1260     6653.31
28.1552     6555.02
28.1844     6557.52
28.2135     6636.30
28.2427     6452.41
28.2718     6584.01
28.3010     6440.77
28.3302     6370.01
28.3593     6539.43
28.3885     6576.76
28.4176     6569.08
28.4468     6613.45
28.4760     6701.67
28.5051     6610.64
28.5343     6553.13
28.5634     6532.44
28.5926     6669.59
28.6218     6512.31
28.6509     6635.34
28.6801     6455.58
28.7092     6485.85
28.7384     6521.84
28.7676     6580.02
28.7967     6580.07
28.8259     6575.18
28.8550     6527.77
28.8842     6482.65
28.9134     6427.07
28.9425     6291.18
28.9717     6517.05
29.0008     6641.54
29.0300     6633.48
29.0592     6632.04
29.0883     6445.93
29.1175     6665.73
29.1466     6460.57
29.1758     6585.46
29.2050     6436.07
29.2341     6442.63
29.2633     6526.51
29.2924     6591.26
29.3216     6465.31
29.3508     6454.19
29.3799     6515.67
29.4091     6523.87
29.4382     6658.78
29.4674     6599.84
29.4966     6422.92
29.5257     6725.59
29.5549     6621.51
29.5840     6577.07
29.6132     6587.76
29.6424     6447.44
29.6715     6339.65
29.7007     6415.07
29.7298     6578.48
29.7590     6547.61
29.7882     6579.21
29.8173     6664.81
29.8465     6554.16
29.8756     6500.60
29.9048     6519.75
29.9340     6604.75
29.9631     6572.92
29.9923     6465.03
30.0214     6552.01
30.0506     6580.43
30.0798     6534.57
30.1089     6419.75
30.1381     6522.01
30.1672     6476.22
30.1964     6470.31
30.2256     6491.83
30.2547     6478.93
30.2839     6465.91
30.3130     6490.84
30.3422     6384.38
30.3714     6482.16
30.4005     6620.02
30.4297     6513.54
30.4588     6481.26
30.4880     6585.31
30.5172     6488.04
30.5463     6434.61
30.5755     6416.67
30.6046     6461.71
30.6338     6422.16
30.6630     6320.97
30.6921     6442.95
30.7213     6453.22
30.7504     6442.18
30.7796     6375.82
30.8088     6415.54
30.8379     6431.03
30.8671     6401.29
30.8962     6432.98
30.9254     6471.43
30.9546     6496.42
30.9837     6459.13
31.0129     6500.29
31.0420     6516.07
31.0712     6443.11
31.1004     6503.97
31.1295     6537.30
31.1587     6481.51
31.1878     6458.84
31.2170     6534.04
31.2462     6532.40
31.2753     6435.58
31.3045     6506.06
31.3336     6418.76
31.3628     6350.42
31.3920     6388.88
31.4211     6412.15
31.4503     6388.05
31.4794     6428.70
31.5086     6479.07
31.5378     6525.43
31.5669     6546.28
31.5961     6434.75
31.6252     6436.56
31.6544     6469.53
31.6836     6473.69
31.7127     6577.35
31.7419     6548.54
31.7710     6557.44
31.8002     6494.29
31.8294     6402.36
31.8585     6372.17
31.8877     6423.71
31.9168     6478.77
31.9460     6556.01
31.9752     6571.02
32.0043     6485.19
32.0335     6479.67
32.0626     6503.68
32.0918     6553.04
32.1210     6569.85
32.1501     6595.44
32.1793     6503.84
32.2084     6452.31
32.2376     6518.30
32.2668     6500.95
32.2959     6478.06
32.3251     6494.49
32.3542     6481.84
32.3834     6511.55
32.4126     6603.41
32.4417     6531.71
32.4709     6525.31
32.5000     6637.67
32.5292     6614.69
32.5584     6548.81
32.5875     6545.34
32.6167     6577.07
32.6458     6496.00
32.6750     6506.62
32.7042     6471.92
32.7333     6422.26
32.7625     6504.25
32.7916     6399.97
32.8208     6463.49
32.8500     6561.30
32.8791     6500.79
32.9083     6499.81
32.9374     6602.73
32.9666     6580.64
32.9958     6464.54
33.0249     6499.71
33.0541     6475.29
33.0832     6507.40
33.1124     6506.88
33.1416     6606.50
33.1707     6625.20
33.1999     6640.22
33.2290     6664.72
33.2582     6595.73
33.2874     6628.49
33.3165     6606.44
33.3457     6595.26
33.3748     6559.87
33.4040     6549.21
33.4332     6525.24
33.4623     6547.98
33.4915     6528.81
33.5206     6511.61
33.5498     6531.18
33.5790     6341.93
33.6081     6388.91
33.6373     6442.99
33.6664     6460.48
33.6956     6445.55
33.7248     6509.61
33.7539     6451.13
33.7831     6396.96
33.8122     6399.07
33.8414     6545.10
33.8706     6643.00
33.8997     6637.61
33.9289     6542.36
33.9580     6530.80
33.9872     6514.42
34.0164     6434.39
34.0455     6392.05
34.0747     6403.43
34.1038     6429.89
34.1330     6428.91
34.1622     6475.96
34.1913     6473.85
34.2205     6497.96
34.2496     6495.72
34.2788     6471.31
34.3080     6490.48
34.3371     6537.16
34.3663     6525.24
34.3954     6548.72
34.4246     6560.28
34.4538     6477.84
34.4829     6493.81
34.5121     6511.00
34.5412     6412.59
34.5704     6427.01
34.5996     6556.34
34.6287     6576.69
34.6579     6592.01
34.6870     6566.60
34.7162     6627.34
34.7454     6677.81
34.7745     6556.79
34.8037     6630.64
34.8328     6664.15
34.8620     6551.71
34.8912     6521.88
34.9203     6591.81
34.9495     6573.68
34.9786     6548.73
35.0078     6623.09
35.0370     6548.39
35.0661     6604.63
35.0953     6650.26
35.1244     6635.85
35.1536     6591.91
35.1828     6684.19
35.2119     6639.71
35.2411     6577.27
35.2702     6571.88
35.2994     6577.07
35.3286     6517.25
35.3577     6476.70
35.3869     6678.29
35.4160     6660.31
35.4452     6716.78
35.4744     6638.31
35.5035     6781.79
35.5327     6679.57
35.5618     6677.14
35.5910     6539.21
35.6202     6465.38
35.6493     6617.54
35.6785     6620.04
35.7076     6573.63
35.7368     6596.04
35.7660     6766.19
35.7951     6568.99
35.8243     6688.66
35.8534     6570.29
35.8826     6576.05
35.9118     6748.54
35.9409     6580.97
35.9701     6637.46
35.9992     6393.49
36.0284     6774.43
36.0576     6404.71
36.0867     6660.26
36.1159     6678.53
36.1450     6601.14
36.1742     6610.91
36.2034     6554.98
36.2325     6644.69
36.2617     6557.98
36.2908     6711.50
36.3200     6564.62
36.3492     6675.16
36.3783     6577.90
36.4075     6643.58
36.4366     6468.96
36.4658     6653.70
36.4950     6483.86
36.5241     6500.17
36.5533     6740.19
36.5824     6602.02
36.6116     6670.82
36.6408     6559.83
36.6699     6543.73
36.6991     6469.21
36.7282     6493.67
36.7574     6664.11
36.7866     6576.53
36.8157     6708.80
36.8449     6585.64
36.8740     6523.53
36.9032     6512.94
36.9324     6497.51
36.9615     6512.36
36.9907     6588.25
37.0198     6523.01
37.0490     6682.90
37.0782     6583.00
37.1073     6672.62
37.1365     6647.28
37.1656     6579.40
37.1948     6701.80
37.2240     6699.54
37.2531     6666.64
37.2823     6548.65
37.3114     6602.95
37.3406     6643.13
37.3698     6601.01
37.3989     6638.14
37.4281     6682.74
37.4572     6685.84
37.4864     6710.79
37.5156     6641.47
37.5447     6606.31
37.5739     6601.11
37.6030     6691.97
37.6322     6656.11
37.6614     6640.47
37.6905     6674.11
37.7197     6643.14
37.7488     6555.57
37.7780     6620.71
37.8072     6727.11
37.8363     6731.59
37.8655     6692.91
37.8946     6631.32
37.9238     6600.15
37.9530     6559.13
37.9821     6568.33
38.0113     6649.50
38.0404     6685.19
38.0696     6717.39
38.0988     6617.42
38.1279     6609.91
38.1571     6660.19
38.1862     6651.94
38.2154     6659.12
38.2446     6581.43
38.2737     6596.18
38.3029     6656.88
38.3320     6620.09
38.3612     6565.92
38.3904     6638.23
38.4195     6650.94
38.4487     6631.91
38.4778     6687.17
38.5070     6594.43
38.5362     6586.84
38.5653     6621.10
38.5945     6729.37
38.6236     6643.11
38.6528     6662.05
38.6820     6628.15
38.7111     6619.28
38.7403     6663.96
38.7694     6693.30
38.7986     6692.26
38.8278     6672.04
38.8569     6601.67
38.8861     6568.94
38.9152     6562.04
38.9444     6646.40
38.9736     6664.22
39.0027     6609.71
39.0319     6684.59
39.0610     6604.16
39.0902     6713.94
39.1194     6662.68
39.1485     6497.77
39.1777     6491.73
39.2068     6593.23
39.2360     6708.56
39.2652     6653.78
39.2943     6684.17
39.3235     6727.30
39.3526     6644.73
39.3818     6835.65
39.4110     6701.84
39.4401     6493.35
39.4693     6655.20
39.4984     6531.11
39.5276     6740.90
39.5568     6522.70
39.5859     6676.97
39.6151     6559.12
39.6442     6427.99
39.6734     6661.92
39.7026     6641.39
39.7317     6556.69
39.7609     6597.96
39.7900     6709.29
39.8192     6698.36
39.8484     6686.03
39.8775     6739.93
39.9067     6551.00
39.9358     6669.89
39.9650     6720.16
39.9942     6680.32
40.0233     6606.57
40.0525     6613.34
40.0816     6573.29
40.1108     6633.28
40.1400     6477.87
40.1691     6632.77
40.1983     6633.90
40.2274     6594.84
40.2566     6619.37
40.2858     6615.43
40.3149     6647.80
40.3441     6704.55
40.3732     6741.36
40.4024     6668.90
40.4316     6662.13
40.4607     6642.63
40.4899     6653.21
40.5190     6711.53
40.5482     6748.28
40.5774     6748.30
40.6065     6707.77
40.6357     6678.51
40.6648     6604.55
40.6940     6595.03
40.7232     6638.81
40.7523     6584.54
40.7815     6622.88
40.8106     6705.72
40.8398     6663.79
40.8690     6589.01
40.8981     6626.43
40.9273     6631.99
40.9564     6699.98
40.9856     6773.16
41.0148     6643.67
41.0439     6727.56
41.0731     6669.17
41.1022     6611.14
41.1314     6681.70
41.1606     6743.71
41.1897     6643.81
41.2189     6641.33
41.2480     6678.30
41.2772     6679.46
41.3064     6672.09
41.3355     6653.45
41.3647     6741.54
41.3938     6707.69
41.4230     6748.34
41.4522     6837.00
41.4813     6760.21
41.5105     6606.83
41.5396     6702.35
41.5688     6591.49
41.5980     6772.95
41.6271     6620.71
41.6563     6558.80
41.6854     6672.59
41.7146     6677.58
41.7438     6618.28
41.7729     6751.94
41.8021     6611.80
41.8312     6615.66
41.8604     6659.34
41.8896     6631.74
41.9187     6674.00
41.9479     6561.47
41.9770     6538.36
42.0062     6594.70
42.0354     6532.54
42.0645     6513.68
42.0937     6605.00
42.1228     6559.81
42.1520     6540.99
42.1812     6543.23
42.2103     6567.24
42.2395     6525.33
42.2686     6525.39
42.2978     6453.99
42.3270     6568.86
42.3561     6605.37
42.3853     6568.06
42.4144     6591.14
42.4436     6570.90
42.4728     6517.14
42.5019     6508.02
42.5311     6452.60
42.5602     6618.22
42.5894     6760.16
42.6186     6695.11
42.6477     6614.98
42.6769     6661.88
42.7060     6749.68
42.7352     6764.03
42.7644     6676.60
42.7935     6586.45
42.8227     6543.58
42.8518     6633.32
42.8810     6719.56
42.9102     6662.85
42.9393     6657.75
42.9685     6756.59
42.9976     6804.83
43.0268     6844.53
43.0560     6925.55
43.0851     6871.76
43.1143     6888.00
43.1434     6986.56
43.1726     6980.77
43.2018     7018.79
43.2309     7173.82
43.2601     7160.58
43.2892     7258.57
43.3184     7348.60
43.3476     7419.46
43.3767     7643.14
43.4059     7686.29
43.4350     7678.50
43.4642     7725.94
43.4934     7803.83
43.5225     7909.32
43.5517     8010.82
43.5808     8079.59
43.6100     8213.47
43.6392     8366.16
43.6683     8328.47
43.6975     8333.89
43.7266     8442.67
43.7558     8463.92
43.7850     8565.75
43.8141     8665.15
43.8433     8616.60
43.8724     8609.95
43.9016     8742.46
43.9308     8863.74
43.9599     8778.41
43.9891     8742.14
44.0182     8711.94
44.0474     8617.71
44.0766     8501.09
44.1057     8419.16
44.1349     8480.20
44.1640     8467.16
44.1932     8356.00
44.2224     8275.39
44.2515     8344.11
44.2807     8175.49
44.3098     8138.90
44.3390     8102.76
44.3682     8063.38
44.3973     8039.58
44.4265     7923.21
44.4556     7793.32
44.4848     7710.10
44.5140     7673.16
44.5431     7684.81
44.5723     7690.00
44.6014     7716.27
44.6306     7731.07
44.6598     7769.80
44.6889     7676.10
44.7181     7505.64
44.7472     7561.96
44.7764     7509.92
44.8056     7267.52
44.8347     7154.65
44.8639     7161.80
44.8930     7059.61
44.9222     7022.54
44.9514     6895.96
44.9805     6866.44
45.0097     6747.91
45.0388     6791.99
45.0680     6727.29
45.0972     6580.70
45.1263     6763.09
45.1555     6714.29
45.1846     6580.13
45.2138     6622.60
45.2430     6667.89
45.2721     6619.42
45.3013     6731.76
45.3304     6496.24
45.3596     6581.33
45.3888     6694.89
45.4179     6609.80
45.4471     6601.01
45.4762     6546.31
45.5054     6686.95
45.5346     6589.82
45.5637     6707.81
45.5929     6792.34
45.6220     6759.65
45.6512     6836.52
45.6804     6801.30
45.7095     6720.43
45.7387     6682.99
45.7678     6621.35
45.7970     6771.24
45.8262     6746.11
45.8553     6590.84
45.8845     6831.01
45.9136     6691.19
45.9428     6922.19
45.9720     6812.94
46.0011     6906.64
46.0303     6784.58
46.0594     6847.17
46.0886     6747.27
46.1178     6830.20
46.1469     6651.03
46.1761     6740.49
46.2052     6866.56
46.2344     6768.99
46.2636     6737.29
46.2927     6827.99
46.3219     6745.82
46.3510     6625.96
46.3802     6779.15
46.4094     6823.26
46.4385     6796.00
46.4677     6834.91
46.4968     6735.13
46.5260     6747.79
46.5552     6696.67
46.5843     6638.81
46.6135     6810.02
46.6426     6822.93
46.6718     6727.40
46.7010     6751.03
46.7301     6812.34
46.7593     6769.90
46.7884     6711.60
46.8176     6654.76
46.8468     6682.95
46.8759     6740.09
46.9051     6711.65
46.9342     6730.84
46.9634     6702.31
46.9926     6670.08
47.0217     6714.18
47.0509     6759.60
47.0800     6597.53
47.1092     6748.33
47.1384     6736.63
47.1675     6787.39
47.1967     6930.17
47.2258     6738.50
47.2550     6719.97
47.2842     6752.92
47.3133     6725.57
47.3425     6680.52
47.3716     6694.61
47.4008     6765.11
47.4300     6876.07
47.4591     6847.11
47.4883     6951.10
47.5174     6935.81
47.5466     6887.95
47.5758     6887.71
47.6049     6794.65
47.6341     6773.88
47.6632     6766.23
47.6924     6730.42
47.7216     6771.89
47.7507     6698.08
47.7799     6737.54
47.8090     6769.92
47.8382     6770.00
47.8674     6800.55
47.8965     6731.38
47.9257     6628.44
47.9548     6593.16
47.9840     6624.52
48.0132     6627.65
48.0423     6715.32
48.0715     6681.58
48.1006     6730.29
48.1298     6782.93
48.1590     6786.45
48.1881     6730.75
48.2173     6789.77
48.2464     6857.49
48.2756     6776.88
48.3048     6758.31
48.3339     6784.02
48.3631     6835.53
48.3922     6726.47
48.4214     6735.50
48.4506     6731.08
48.4797     6743.87
48.5089     6785.83
48.5380     6755.97
48.5672     6704.86
48.5964     6890.94
48.6255     6731.10
48.6547     6754.49
48.6838     6759.77
48.7130     6833.54
48.7422     6802.66
48.7713     6871.76
48.8005     6866.26
48.8296     6685.10
48.8588     6689.50
48.8880     6604.40
48.9171     6599.71
48.9463     6742.90
48.9754     6806.50
49.0046     6743.32
49.0338     6718.52
49.0629     6683.11
49.0921     6770.89
49.1212     6787.03
49.1504     6805.50
49.1796     6885.92
49.2087     6847.88
49.2379     6725.89
49.2670     6731.72
49.2962     6717.61
49.3254     6827.78
49.3545     6803.77
49.3837     6755.20
49.4128     6768.46
49.4420     6726.90
49.4712     6707.19
49.5003     6720.15
49.5295     6682.51
49.5586     6672.57
49.5878     6831.15
49.6170     6984.65
49.6461     6946.80
49.6753     6781.76
49.7044     6811.73
49.7336     6832.91
49.7628     6933.94
49.7919     6907.27
49.8211     6857.27
49.8502     6634.91
49.8794     6551.24
49.9086     6686.34
49.9377     6870.62
49.9669     6882.45
49.9960     6972.86
50.0252     6910.85
50.0544     6784.96
50.0835     6808.79
50.1127     6726.89
50.1418     6704.36
50.1710     6739.76
50.2002     6683.89
50.2293     6811.04
50.2585     6864.37
50.2876     6803.52
50.3168     6820.13
50.3460     6922.73
50.3751     6919.41
50.4043     6904.35
50.4334     6816.03
50.4626     6822.63
50.4918     6807.20
50.5209     6920.17
50.5501     6906.23
50.5792     6865.57
50.6084     6855.64
50.6376     6891.17
50.6667     6885.15
50.6959     6803.54
50.7250     6834.42
50.7542     6871.48
50.7834     6768.22
50.8125     6832.20
50.8417     6894.10
50.8708     6841.99
50.9000     6746.97
50.9292     6924.66
50.9583     7066.95
50.9875     7024.59
51.0166     6982.61
51.0458     6848.88
51.0750     6766.06
51.1041     6742.68
51.1333     6809.89
51.1624     6849.57
51.1916     6776.29
51.2208     6857.99
51.2499     6852.27
51.2791     6734.12
51.3082     6830.83
51.3374     6829.10
51.3666     6861.33
51.3957     6799.05
51.4249     6770.82
51.4540     6888.61
51.4832     6843.72
51.5124     6829.76
51.5415     6811.13
51.5707     6837.16
51.5998     6810.36
51.6290     6743.73
51.6582     6730.60
51.6873     6680.45
51.7165     6739.27
51.7456     6880.16
51.7748     6832.18
51.8040     6789.08
51.8331     6859.13
51.8623     6829.27
51.8914     6765.65
51.9206     6711.56
51.9498     6716.75
51.9789     6741.18
52.0081     6752.07
52.0372     6894.16
52.0664     6941.91
52.0956     6752.44
52.1247     6879.44
52.1539     6950.70
52.1830     6880.46
52.2122     6821.43
52.2414     6717.17
52.2705     6577.42
52.2997     6629.86
52.3288     6736.15
52.3580     6797.73
52.3872     6720.66
52.4163     6785.09
52.4455     6848.62
52.4746     6854.63
52.5038     6809.11
52.5330     6771.76
52.5621     6664.74
52.5913     6772.97
52.6204     6810.47
52.6496     6846.73
52.6788     6864.98
52.7079     6854.47
52.7371     6798.54
52.7662     6888.22
52.7954     6925.05
52.8246     6697.89
52.8537     6517.66
52.8829     6542.55
52.9120     6542.82
52.9412     6712.57
52.9704     6854.18
52.9995     6720.16
53.0287     6819.36
53.0578     6925.80
53.0870     6913.56
53.1162     6775.99
53.1453     6570.78
53.1745     6582.34
53.2036     6654.60
53.2328     6678.43
53.2620     6742.62
53.2911     6744.76
53.3203     6600.68
53.3494     6830.25
53.3786     6898.57
53.4078     6884.07
53.4369     6875.37
53.4661     6814.55
53.4952     6791.11
53.5244     6678.08
53.5536     6786.82
53.5827     6829.79
53.6119     6937.59
53.6410     6876.15
53.6702     6722.48
53.6994     6728.19
53.7285     6640.36
53.7577     6556.72
53.7868     6650.20
53.8160     6689.91
53.8452     6760.35
53.8743     6547.03
53.9035     6727.31
53.9326     6734.96
53.9618     6688.36
53.9910     6765.17
54.0201     6820.05
54.0493     6751.00
54.0784     6710.20
54.1076     6679.38
54.1368     6503.24
54.1659     6607.25
54.1951     6815.23
54.2242     6719.53
54.2534     6715.43
54.2826     6819.19
54.3117     6763.92
54.3409     6592.86
54.3700     6632.53
54.3992     6648.74
54.4284     6783.26
54.4575     6723.05
54.4867     6964.24
54.5158     6872.97
54.5450     6879.47
54.5742     6736.28
54.6033     6910.88
54.6325     6713.59
54.6616     6705.17
54.6908     6685.50
54.7200     6704.77
54.7491     6745.72
54.7783     6888.98
54.8074     6892.64
54.8366     6845.11
54.8658     6856.20
54.8949     6919.96
54.9241     6786.42
54.9532     6814.93
54.9824     6807.97
55.0116     6808.75
55.0407     6738.89
55.0699     6832.54
55.0990     6888.54
55.1282     6885.11
55.1574     6887.49
55.1865     6886.97
55.2157     6806.69
55.2448     6906.82
55.2740     6922.20
55.3032     6871.51
55.3323     6790.38
55.3615     6662.11
55.3906     6817.08
55.4198     6747.98
55.4490     6831.11
55.4781     6807.06
55.5073     7023.68
55.5364     7004.34
55.5656     6881.09
55.5948     6790.81
55.6239     6622.83
55.6531     6634.47
55.6822     6723.53
55.7114     6759.74
55.7406     6927.46
55.7697     6879.24
55.7989     6641.96
55.8280     6657.40
55.8572     6644.18
55.8864     6836.28
55.9155     6765.93
55.9447     6783.44
55.9738     6626.65
56.0030     6592.01
56.0322     6772.50
56.0613     6903.97
56.0905     6566.39
56.1196     6647.34
56.1488     6705.13
56.1780     6780.31
56.2071     6790.73
56.2363     6651.31
56.2654     6597.25
56.2946     6706.34
56.3238     6828.59
56.3529     6868.77
56.3821     6646.47
56.4112     6690.91
56.4404     6779.41
56.4696     6697.63
56.4987     6761.14
56.5279     6820.33
56.5570     6701.90
56.5862     6554.62
56.6154     6461.33
56.6445     6515.03
56.6737     6720.96
56.7028     6807.27
56.7320     6687.62
56.7612     6661.09
56.7903     6820.14
56.8195     6824.17
56.8486     6791.13
56.8778     6751.49
56.9070     6770.08
56.9361     6766.87
56.9653     6828.85
56.9944     6849.16
57.0236     6849.98
57.0528     6757.93
57.0819     6671.61
57.1111     6734.90
57.1402     6714.82
57.1694     6685.04
57.1986     6706.22
57.2277     6617.62
57.2569     6466.64
57.2860     6551.29
57.3152     6730.84
57.3444     6650.02
57.3735     6756.76
57.4027     6784.34
57.4318     6776.89
57.4610     6737.06
57.4902     6776.43
57.5193     6760.47
57.5485     6710.17
57.5776     6818.68
57.6068     6871.60
57.6360     6776.84
57.6651     6707.93
57.6943     6643.60
57.7234     6683.27
57.7526     6749.72
57.7818     6662.26
57.8109     6699.72
57.8401     6662.55
57.8692     6516.56
57.8984     6653.80
57.9276     6765.70
57.9567     6696.93
57.9859     6657.74
58.0150     6727.73
58.0442     6672.89
58.0734     6594.52
58.1025     6650.53
58.1317     6701.58
58.1608     6644.39
58.1900     6709.50
58.2192     6776.63
58.2483     6771.37
58.2775     6790.52
58.3066     6648.80
58.3358     6688.81
58.3650     6666.33
58.3941     6714.91
58.4233     6702.61
58.4524     6637.05
58.4816     6542.53
58.5108     6694.08
58.5399     6848.35
58.5691     6715.77
58.5982     6708.37
58.6274     6830.13
58.6566     6847.47
58.6857     6756.76
58.7149     6714.53
58.7440     6814.68
58.7732     6734.92
58.8024     6725.65
58.8315     6686.88
58.8607     6753.37
58.8898     6803.89
58.9190     6730.30
58.9482     6797.62
58.9773     6852.99
59.0065     6708.55
59.0356     6734.30
59.0648     6716.94
59.0940     6549.13
59.1231     6722.34
59.1523     6909.44
59.1814     6799.29
59.2106     6795.69
59.2398     6814.48
59.2689     6798.72
59.2981     6681.29
59.3272     6725.25
59.3564     6719.37
59.3856     6665.74
59.4147     6726.59
59.4439     6830.94
59.4730     6837.84
59.5022     6762.69
59.5314     6734.69
59.5605     6758.56
59.5897     6761.08
59.6188     6703.46
59.6480     6656.19
59.6772     6580.69
59.7063     6395.29
59.7355     6519.87
59.7646     6799.39
59.7938     6719.67
59.8230     6712.59
59.8521     6836.75
59.8813     6886.24
59.9104     6772.33
59.9396     6762.64
59.9688     6707.53
59.9979     6796.05
60.0271     6765.75
60.0562     6792.56
60.0854     6707.21
60.1146     6809.79
60.1437     6774.02
60.1729     6664.47
60.2020     6703.22
60.2312     6822.82
60.2604     6834.83
60.2895     6743.23
60.3187     6616.40
60.3478     6566.34
60.3770     6822.84
60.4062     6722.25
60.4353     6770.98
60.4645     6888.68
60.4936     6694.98
60.5228     6718.66
60.5520     6757.92
60.5811     6850.90
60.6103     6772.08
60.6394     6663.53
60.6686     6823.64
60.6978     6747.29
60.7269     6611.70
60.7561     6635.79
60.7852     6839.60
60.8144     6892.97
60.8436     6762.62
60.8727     6850.80
60.9019     6770.03
60.9310     6652.58
60.9602     6538.62
60.9894     6763.04
61.0185     6791.97
61.0477     6678.26
61.0768     6782.27
61.1060     6778.07
61.1352     6787.46
61.1643     6724.45
61.1935     6747.81
61.2226     6687.15
61.2518     6662.44
61.2810     6760.78
61.3101     6778.33
61.3393     6778.00
61.3684     6745.19
61.3976     6837.40
61.4268     6847.04
61.4559     6770.71
61.4851     6674.44
61.5142     6643.82
61.5434     6523.98
61.5726     6590.10
61.6017     6774.41
61.6309     6756.55
61.6600     6646.63
61.6892     6884.08
61.7184     6764.92
61.7475     6790.49
61.7767     6738.39
61.8058     6694.37
61.8350     6852.96
61.8642     6615.82
61.8933     6664.88
61.9225     6726.37
61.9516     6871.43
61.9808     6799.77
62.0100     6753.64
62.0391     6680.76
62.0683     6609.79
62.0974     6755.90
62.1266     6751.07
62.1558     6441.77
62.1849     6608.56
62.2141     6560.53
62.2432     6521.90
62.2724     6745.42
62.3016     6840.14
62.3307     6941.79
62.3599     6858.76
62.3890     6667.62
62.4182     6781.13
62.4474     6600.82
62.4765     6648.33
62.5057     6741.15
62.5348     6677.82
62.5640     6769.12
62.5932     6653.40
62.6223     6624.80
62.6515     6648.24
62.6806     6631.85
62.7098     6592.21
62.7390     6505.04
62.7681     6482.38
62.7973     6612.56
62.8264     6689.65
62.8556     6649.88
62.8848     6722.23
62.9139     6818.00
62.9431     6746.77
62.9722     6803.75
63.0014     6692.59
63.0306     6659.80
63.0597     6786.30
63.0889     6819.66
63.1180     6655.29
63.1472     6637.43
63.1764     6769.65
63.2055     6803.90
63.2347     6901.81
63.2638     6933.48
63.2930     6780.41
63.3222     6739.93
63.3513     6408.93
63.3805     6596.44
63.4096     6719.48
63.4388     6788.74
63.4680     6675.09
63.4971     6762.06
63.5263     6708.83
63.5554     6534.33
63.5846     6736.69
63.6138     6840.69
63.6429     6822.61
63.6721     6798.41
63.7012     6800.00
63.7304     6804.06
63.7596     6785.42
63.7887     6740.38
63.8179     6794.35
63.8470     6752.81
63.8762     6822.32
63.9054     6833.33
63.9345     6624.31
63.9637     6597.57
63.9928     6794.44
64.0220     6834.28
64.0512     6849.02
64.0803     6912.16
64.1095     6962.54
64.1386     6959.82
64.1678     6819.41
64.1970     6952.86
64.2261     6918.33
64.2553     6782.03
64.2844     6716.36
64.3136     6696.53
64.3428     6816.14
64.3719     6846.76
64.4011     6764.62
64.4302     6821.68
64.4594     6841.69
64.4886     7012.66
64.5177     6907.40
64.5469     6584.38
64.5760     6726.23
64.6052     6783.50
64.6344     6777.07
64.6635     6700.91
64.6927     6848.63
64.7218     6838.08
64.7510     6965.13
64.7802     6726.27
64.8093     6716.65
64.8385     6723.91
64.8676     6769.00
64.8968     6866.78
64.9260     6920.34
64.9551     6831.73
64.9843     6648.77
65.0134     6492.64
65.0426     6539.91
65.0718     6750.18
65.1009     6770.28
65.1301     6590.56
65.1592     6555.76
65.1884     6714.07
65.2176     6731.80
65.2467     6713.25
65.2759     6736.31
65.3050     6713.17
65.3342     6825.46
65.3634     6858.94
65.3925     6696.66
65.4217     6606.04
65.4508     6623.65
65.4800     6574.70
65.5092     6583.96
65.5383     6726.17
65.5675     6734.89
65.5966     6674.47
65.6258     6722.55
65.6550     6647.79
65.6841     6526.79
65.7133     6680.91
65.7424     6691.19
65.7716     6663.38
65.8008     6736.56
65.8299     6850.68
65.8591     6885.95
65.8882     6722.70
65.9174     6610.54
65.9466     6526.29
65.9757     6490.00
66.0049     6613.23
66.0340     6737.05
66.0632     6690.70
66.0924     6549.33
66.1215     6632.04
66.1507     6605.12
66.1798     6697.38
66.2090     6659.62
66.2382     6600.59
66.2673     6491.12
66.2965     6418.05
66.3256     6446.34
66.3548     6698.41
66.3840     6628.36
66.4131     6723.81
66.4423     6625.11
66.4714     6571.65
66.5006     6589.66
66.5298     6583.30
66.5589     6629.67
66.5881     6600.05
66.6172     6516.45
66.6464     6581.31
66.6756     6698.43
66.7047     6643.42
66.7339     6599.46
66.7630     6763.66
66.7922     6728.28
66.8214     6589.04
66.8505     6630.00
66.8797     6597.32
66.9088     6658.60
66.9380     6745.37
66.9672     6801.54
66.9963     6607.81
67.0255     6593.36
67.0546     6703.56
67.0838     6711.70
67.1130     6639.52
67.1421     6680.58
67.1713     6640.30
67.2004     6807.84
67.2296     6690.55
67.2588     6622.06
67.2879     6649.40
67.3171     6789.37
67.3462     6759.76
67.3754     6640.10
67.4046     6652.01
67.4337     6764.41
67.4629     6818.84
67.4920     6739.47
67.5212     6655.93
67.5504     6594.87
67.5795     6620.75
67.6087     6757.02
67.6378     6730.61
67.6670     6695.12
67.6962     6619.31
67.7253     6706.84
67.7545     6741.50
67.7836     6698.99
67.8128     6734.95
67.8420     6810.00
67.8711     6572.18
67.9003     6677.54
67.9294     6618.00
67.9586     6743.96
67.9878     6690.26
68.0169     6708.05
68.0461     6663.12
68.0752     6678.36
68.1044     6761.97
68.1336     6676.48
68.1627     6636.99
68.1919     6624.17
68.2210     6621.00
68.2502     6609.46
68.2794     6647.58
68.3085     6607.51
68.3377     6626.69
68.3668     6614.93
68.3960     6572.76
68.4252     6645.53
68.4543     6668.25
68.4835     6676.55
68.5126     6723.32
68.5418     6635.24
68.5710     6560.65
68.6001     6659.21
68.6293     6764.11
68.6584     6691.11
68.6876     6720.61
68.7168     6707.48
68.7459     6615.88
68.7751     6603.85
68.8042     6477.98
68.8334     6512.49
68.8626     6672.03
68.8917     6602.30
68.9209     6598.17
68.9500     6670.21
68.9792     6539.22
69.0084     6513.18
69.0375     6698.59
69.0667     6543.17
69.0958     6576.86
69.1250     6622.52
69.1542     6456.04
69.1833     6830.81
69.2125     6643.24
69.2416     6683.29
69.2708     6521.53
69.3000     6498.00
69.3291     6560.81
69.3583     6485.90
69.3874     6575.94
69.4166     6557.12
69.4458     6428.04
69.4749     6445.51
69.5041     6506.84
69.5332     6479.33
69.5624     6491.64
69.5916     6468.88
69.6207     6508.44
69.6499     6509.48
69.6790     6443.04
69.7082     6331.92
69.7374     6405.83
69.7665     6430.81
69.7957     6591.58
69.8248     6535.73
69.8540     6731.81
69.8832     6546.81
69.9123     6422.15
69.9415     6423.09
69.9706     6533.34
69.9998     6635.20
70.0290     6618.76
70.0581     6595.71
70.0873     6579.83
70.1164     6557.63
70.1456     6728.43
70.1748     6482.78
70.2039     6602.52
70.2331     6526.82
70.2622     6440.93
70.2914     6583.34
70.3206     6647.06
70.3497     6470.84
70.3789     6622.69
70.4080     6466.71
70.4372     6649.59
70.4664     6351.94
70.4955     6563.36
70.5247     6617.42
70.5538     6456.95
70.5830     6494.34
70.6122     6502.77
70.6413     6476.37
70.6705     6506.81
70.6996     6579.43
70.7288     6524.83
70.7580     6637.96
70.7871     6525.03
70.8163     6670.15
70.8454     6624.67
70.8746     6556.30
70.9038     6584.98
70.9329     6780.77
70.9621     6565.36
70.9912     6645.84
71.0204     6552.00
71.0496     6591.08
71.0787     6644.51
71.1079     6614.18
71.1370     6609.68
71.1662     6683.97
71.1954     6524.50
71.2245     6550.18
71.2537     6470.08
71.2828     6475.65
71.3120     6534.27
71.3412     6550.96
71.3703     6527.96
71.3995     6413.63
71.4286     6532.54
71.4578     6587.52
71.4870     6557.24
71.5161     6632.26
71.5453     6526.53
71.5744     6604.88
71.6036     6518.86
71.6328     6548.53
71.6619     6641.85
71.6911     6741.07
71.7202     6689.92
71.7494     6639.45
71.7786     6647.47
71.8077     6542.50
71.8369     6518.55
71.8660     6585.74
71.8952     6573.43
71.9244     6583.98
71.9535     6718.74
71.9827     6702.05
72.0118     6663.99
72.0410     6581.78
72.0702     6605.43
72.0993     6611.68
72.1285     6575.08
72.1576     6598.13
72.1868     6588.89
72.2160     6509.95
72.2451     6520.63
72.2743     6669.04
72.3034     6708.64
72.3326     6589.94
72.3618     6551.86
72.3909     6493.95
72.4201     6429.52
72.4492     6527.47
72.4784     6555.11
72.5076     6592.31
72.5367     6619.97
72.5659     6632.04
72.5950     6717.43
72.6242     6689.79
72.6534     6680.06
72.6825     6535.81
72.7117     6550.63
72.7408     6557.18
72.7700     6561.59
72.7992     6592.59
72.8283     6670.21
72.8575     6662.81
72.8866     6470.99
72.9158     6585.32
72.9450     6650.62
72.9741     6680.64
73.0033     6466.88
73.0324     6640.48
73.0616     6505.74
73.0908     6531.32
73.1199     6527.43
73.1491     6678.07
73.1782     6452.29
73.2074     6548.73
73.2366     6478.09
73.2657     6480.57
73.2949     6661.70
73.3240     6581.63
73.3532     6664.84
73.3824     6773.39
73.4115     6755.80
73.4407     6733.22
73.4698     6731.43
73.4990     6560.14
73.5282     6612.89
73.5573     6532.80
73.5865     6557.91
73.6156     6611.54
73.6448     6540.60
73.6740     6540.06
73.7031     6595.48
73.7323     6514.19
73.7614     6469.63
73.7906     6503.35
73.8198     6526.33
73.8489     6451.66
73.8781     6477.70
73.9072     6529.61
73.9364     6478.25
73.9656     6420.87
73.9947     6394.53
74.0239     6447.48
74.0530     6511.86
74.0822     6648.11
74.1114     6646.43
74.1405     6491.94
74.1697     6434.03
74.1988     6498.34
74.2280     6509.73
74.2572     6531.84
74.2863     6553.15
74.3155     6501.24
74.3446     6545.19
74.3738     6643.87
74.4030     6533.50
74.4321     6596.48
74.4613     6474.67
74.4904     6422.57
74.5196     6429.16
74.5488     6344.14
74.5779     6384.48
74.6071     6562.54
74.6362     6684.75
74.6654     6714.21
74.6946     6696.31
74.7237     6540.65
74.7529     6460.48
74.7820     6372.23
74.8112     6516.99
74.8404     6646.83
74.8695     6642.93
74.8987     6520.03
74.9278     6579.29
74.9570     6611.36
74.9862     6514.29
75.0153     6381.22
75.0445     6564.24
75.0736     6520.94
75.1028     6513.54
75.1320     6475.24
75.1611     6560.28
75.1903     6500.45
75.2194     6625.33
75.2486     6516.74
75.2778     6381.83
75.3069     6457.64
75.3361     6555.25
75.3652     6451.63
75.3944     6401.60
75.4236     6433.84
75.4527     6461.80
75.4819     6390.22
75.5110     6544.41
75.5402     6585.14
75.5694     6566.07
75.5985     6481.73
75.6277     6403.07
75.6568     6418.07
75.6860     6426.04
75.7152     6574.59
75.7443     6429.68
75.7735     6451.75
75.8026     6422.95
75.8318     6435.15
75.8610     6378.41
75.8901     6389.18
75.9193     6388.78
75.9484     6395.11
75.9776     6366.63
76.0068     6370.16
76.0359     6386.16
76.0651     6526.46
76.0942     6505.62
76.1234     6356.49
76.1526     6388.04
76.1817     6331.35
76.2109     6371.70
76.2400     6451.77
76.2692     6376.08
76.2984     6349.49
76.3275     6413.07
76.3567     6399.46
76.3858     6427.36
76.4150     6589.32
76.4442     6431.61
76.4733     6406.37
76.5025     6501.36
76.5316     6473.93
76.5608     6484.36
76.5900     6497.16
76.6191     6445.81
76.6483     6566.90
76.6774     6595.01
76.7066     6495.95
76.7358     6536.90
76.7649     6571.80
76.7941     6519.84
76.8232     6514.38
76.8524     6508.78
76.8816     6432.18
76.9107     6394.81
76.9399     6443.03
76.9690     6541.48
76.9982     6432.45
77.0274     6432.50
77.0565     6484.36
77.0857     6568.75
77.1148     6573.72
77.1440     6564.02
77.1732     6487.68
77.2023     6619.25
77.2315     6585.39
77.2606     6587.74
77.2898     6472.79
77.3190     6551.14
77.3481     6554.63
77.3773     6526.32
77.4064     6474.90
77.4356     6590.32
77.4648     6463.91
77.4939     6502.33
77.5231     6533.86
77.5522     6430.27
77.5814     6412.00
77.6106     6368.35
77.6397     6433.39
77.6689     6443.28
77.6980     6585.05
77.7272     6455.80
77.7564     6355.21
77.7855     6433.67
77.8147     6420.71
77.8438     6434.04
77.8730     6420.29
77.9022     6403.56
77.9313     6452.42
77.9605     6414.11
77.9896     6421.91
78.0188     6405.42
78.0480     6404.66
78.0771     6468.80
78.1063     6439.36
78.1354     6388.43
78.1646     6444.21
78.1938     6489.16
78.2229     6459.10
78.2521     6371.88
78.2812     6427.87
78.3104     6358.16
78.3396     6351.29
78.3687     6411.81
78.3979     6337.72
78.4270     6513.93
78.4562     6381.89
78.4854     6296.84
78.5145     6304.91
78.5437     6405.10
78.5728     6377.24
78.6020     6424.79
78.6312     6445.30
78.6603     6438.71
78.6895     6455.38
78.7186     6396.03
78.7478     6416.40
78.7770     6440.48
78.8061     6401.83
78.8353     6360.27
78.8644     6319.15
78.8936     6360.23
78.9228     6380.32
78.9519     6353.80
78.9811     6376.04
79.0102     6399.38
79.0394     6461.90
79.0686     6501.05
79.0977     6496.59
79.1269     6437.42
79.1560     6437.28
79.1852     6416.67
79.2144     6381.30
79.2435     6252.83
79.2727     6112.96
79.3018     6123.20
79.3310     6354.71
79.3602     6374.83
79.3893     6428.74
79.4185     6509.58
79.4476     6304.89
79.4768     6204.23
79.5060     6301.70
79.5351     6379.94
79.5643     6273.52
79.5934     6303.53
79.6226     6334.89
79.6518     6302.46
79.6809     6309.83
79.7101     6342.93
79.7392     6270.23
79.7684     6275.30
79.7976     6326.02
79.8267     6276.42
79.8559     6401.03
79.8850     6470.48
79.9142     6285.22
79.9434     6324.14
79.9725     6317.18
80.0017     6418.67
80.0308     6418.11
80.0600     6453.17
80.0892     6451.11
80.1183     6405.18
80.1475     6375.23
80.1766     6403.26
80.2058     6481.56
80.2350     6428.48
80.2641     6404.32
80.2933     6558.15
80.3224     6515.32
80.3516     6543.77
80.3808     6643.97
80.4099     6526.47
80.4391     6554.58
80.4682     6704.57
80.4974     6701.79
80.5266     6620.51
80.5557     6544.51
80.5849     6650.37
80.6140     6696.29
80.6432     6799.84
80.6724     6839.28
80.7015     6845.35
80.7307     6929.55
80.7598     6846.66
80.7890     6736.47
80.8182     6669.04
80.8473     6738.61
80.8765     6882.72
80.9056     7006.97
80.9348     6981.88
80.9640     7026.51
80.9931     7070.77
81.0223     6960.21
81.0514     6979.83
81.0806     6959.31
81.1098     6844.01
81.1389     6832.98
81.1681     6944.43
81.1972     7050.00
81.2264     7014.91
81.2556     7032.56
81.2847     6930.57
81.3139     6839.76
81.3430     6825.98
81.3722     6905.82
81.4014     6910.70
81.4305     6951.61
81.4597     7018.81
81.4888     7127.84
81.5180     7134.79
81.5472     7062.50
81.5763     6961.33
81.6055     6873.92
81.6346     6855.81
81.6638     6883.05
81.6930     6882.08
81.7221     6997.88
81.7513     6915.38
81.7804     6834.65
81.8096     6957.48
81.8388     6840.31
81.8679     6822.94
81.8971     6832.21
81.9262     6690.25
81.9554     6791.50
81.9846     6857.29
82.0137     6758.25
82.0429     6742.79
82.0720     6690.99
82.1012     6673.12
82.1304     6647.01
82.1595     6608.09
82.1887     6629.34
82.2178     6531.13
82.2470     6578.85
82.2762     6653.87
82.3053     6505.50
82.3345     6434.26
82.3636     6510.62
82.3928     6472.92
82.4220     6478.39
82.4511     6491.27
82.4803     6518.96
82.5094     6463.59
82.5386     6288.38
82.5678     6357.66
82.5969     6389.99
82.6261     6343.71
82.6552     6442.16
82.6844     6258.51
82.7136     6301.81
82.7427     6401.02
82.7719     6214.23
82.8010     6123.03
82.8302     6259.04
82.8594     6242.15
82.8885     6402.87
82.9177     6250.89
82.9468     6380.45
82.9760     6255.44
83.0052     6337.48
83.0343     6263.56
83.0635     6362.01
83.0926     6212.10
83.1218     6220.84
83.1510     6284.39
83.1801     6222.95
83.2093     6293.10
83.2384     6361.96
83.2676     6288.77
83.2968     6195.70
83.3259     6170.85
83.3551     6148.67
83.3842     6213.76
83.4134     6153.95
83.4426     6325.57
83.4717     6318.73
83.5009     6247.50
83.5300     6268.13
83.5592     6290.52
83.5884     6324.88
83.6175     6419.69
83.6467     6378.69
83.6758     6293.12
83.7050     6293.40
83.7342     6295.14
83.7633     6415.15
83.7925     6428.38
83.8216     6303.72
83.8508     6223.18
83.8800     6126.23
83.9091     6117.97
83.9383     6202.04
83.9674     6363.84
83.9966     6321.73
84.0258     6322.42
84.0549     6214.68
84.0841     6194.79
84.1132     6126.31
84.1424     6265.92
84.1716     6318.59
84.2007     6391.21
84.2299     6473.59
84.2590     6434.10
84.2882     6443.73
84.3174     6370.82
84.3465     6251.42
84.3757     6240.00
84.4048     6328.82
84.4340     6357.61
84.4632     6343.83
84.4923     6381.89
84.5215     6365.57
84.5506     6276.15
84.5798     6299.24
84.6090     6341.22
84.6381     6319.29
84.6673     6330.55
84.6964     6322.12
84.7256     6270.69
84.7548     6299.58
84.7839     6374.68
84.8131     6309.77
84.8422     6210.79
84.8714     6242.06
84.9006     6271.36
84.9297     6291.65
84.9589     6335.01
84.9880     6325.49
85.0172     6318.36
85.0464     6262.59
85.0755     6263.58
85.1047     6286.93
85.1338     6333.57
85.1630     6281.29
85.1922     6323.51
85.2213     6272.43
85.2505     6210.41
85.2796     6357.65
85.3088     6065.52
85.3380     6092.62
85.3671     6443.85
85.3963     6358.32
85.4254     6314.78
85.4546     6243.45
85.4838     6380.30
85.5129     6265.70
85.5421     6413.22
85.5712     6437.11
85.6004     6180.63
85.6296     6116.72
85.6587     6403.76
85.6879     6398.62
85.7170     6406.45
85.7462     6274.21
85.7754     6265.72
85.8045     6253.55
85.8337     6309.61
85.8628     6230.63
85.8920     6178.18
85.9212     6355.65
85.9503     6385.30
85.9795     6463.85
86.0086     6582.90
86.0378     6636.89
86.0670     6449.50
86.0961     6279.19
86.1253     6203.05
86.1544     6098.93
86.1836     6124.87
86.2128     6185.60
86.2419     6243.79
86.2711     6237.65
86.3002     6191.73
86.3294     6268.45
86.3586     6254.50
86.3877     6211.73
86.4169     6337.12
86.4460     6390.31
86.4752     6334.72
86.5044     6285.94
86.5335     6334.16
86.5627     6396.00
86.5918     6387.33
86.6210     6323.06
86.6502     6340.92
86.6793     6416.08
86.7085     6289.25
86.7376     6183.65
86.7668     6204.95
86.7960     6169.97
86.8251     6266.26
86.8543     6426.67
86.8834     6386.37
86.9126     6215.98
86.9418     6138.58
86.9709     6291.86
87.0001     6338.48
87.0292     6169.35
87.0584     6208.38
87.0876     6244.31
87.1167     6140.27
87.1459     6261.53
87.1750     6348.32
87.2042     6278.18
87.2334     6175.04
87.2625     6141.44
87.2917     6199.83
87.3208     6227.08
87.3500     6140.54
87.3792     6212.81
87.4083     6211.60
87.4375     6160.47
87.4666     6308.48
87.4958     6234.26
87.5250     6226.33
87.5541     6348.58
87.5833     6319.72
87.6124     6207.21
87.6416     6254.10
87.6708     6351.82
87.6999     6265.78
87.7291     6138.07
87.7582     6146.88
87.7874     6194.58
87.8166     6216.72
87.8457     6274.60
87.8749     6298.98
87.9040     6282.99
87.9332     6277.43
87.9624     6231.59
87.9915     6014.94
88.0207     6037.99
88.0498     6185.66
88.0790     6253.26
88.1082     6253.19
88.1373     6185.92
88.1665     6246.65
88.1956     6332.38
88.2248     6233.72
88.2540     6117.05
88.2831     6141.69
88.3123     6194.71
88.3414     6177.76
88.3706     6234.48
88.3998     6246.83
88.4289     6163.28
88.4581     6167.84
88.4872     6208.93
88.5164     6118.95
88.5456     6132.33
88.5747     6137.07
88.6039     6025.07
88.6330     5980.05
88.6622     6017.17
88.6914     6128.77
88.7205     6313.12
88.7497     6302.07
88.7788     6321.52
88.8080     6325.61
88.8372     6195.24
88.8663     6146.83
88.8955     6075.38
88.9246     5950.85
88.9538     5965.62
88.9830     6002.73
89.0121     6001.77
89.0413     6158.79
89.0704     6299.61
89.0996     6280.45
89.1288     6216.92
89.1579     6200.48
89.1871     6248.50
89.2162     6242.77
89.2454     6212.23
89.2746     6246.80
89.3037     6238.80
89.3329     6184.28
89.3620     6122.21
89.3912     6107.69
89.4204     6140.14
89.4495     6072.73
89.4787     6098.36
89.5078     6032.67
89.5370     6136.27
89.5662     6223.66
89.5953     6335.55
89.6245     6146.95
89.6536     6168.84
89.6828     6137.50
89.7120     6083.98
89.7411     6248.40
89.7703     6265.86
89.7994     6093.01
89.8286     6172.45
89.8578     6147.58
89.8869     6142.27
89.9161     6171.97
89.9452     6100.46
89.9744     6200.49
90.0036     6139.60
90.0327     6148.71
90.0619     6198.57
90.0910     6200.13
90.1202     6239.13
90.1494     6181.55
90.1785     6092.44
90.2077     6050.26
90.2368     6024.08
90.2660     6037.55
90.2952     6068.45
90.3243     6104.11
90.3535     6148.53
90.3826     6148.08
90.4118     6078.74
90.4410     6084.04
90.4701     6179.72
90.4993     6185.87
90.5284     6149.28
90.5576     6253.21
90.5868     6133.41
90.6159     5967.93
90.6451     6100.45
90.6742     6206.69
90.7034     6122.70
90.7326     6235.44
90.7617     6081.56
90.7909     6198.35
90.8200     6115.21
90.8492     6195.21
90.8784     6162.23
90.9075     6156.86
90.9367     6071.63
90.9658     6135.82
90.9950     5928.55
91.0242     6096.71
91.0533     6116.41
91.0825     6213.86
91.1116     6153.22
91.1408     6029.17
91.1700     6143.98
91.1991     6056.65
91.2283     6120.22
91.2574     5978.71
91.2866     6091.07
91.3158     6190.01
91.3449     6182.91
91.3741     6086.88
91.4032     6095.36
91.4324     6102.31
91.4616     6115.62
91.4907     6195.23
91.5199     6188.37
91.5490     6189.18
91.5782     6120.56
91.6074     6119.77
91.6365     6187.48
91.6657     6055.70
91.6948     6261.23
91.7240     6304.68
91.7532     6132.63
91.7823     6071.26
91.8115     6030.13
91.8406     6106.14
91.8698     6152.80
91.8990     6151.92
91.9281     6273.90
91.9573     6377.74
91.9864     6325.38
92.0156     6211.59
92.0448     6143.05
92.0739     6040.66
92.1031     5935.94
92.1322     5953.65
92.1614     5988.17
92.1906     6031.66
92.2197     6093.31
92.2489     6166.24
92.2780     6169.15
92.3072     6246.94
92.3364     6141.36
92.3655     6135.46
92.3947     6111.99
92.4238     5980.67
92.4530     6034.74
92.4822     6090.70
92.5113     6303.86
92.5405     6064.16
92.5696     5982.58
92.5988     6178.58
92.6280     6200.90
92.6571     6238.38
92.6863     6155.11
92.7154     6091.13
92.7446     6080.62
92.7738     6166.34
92.8029     6119.63
92.8321     6102.26
92.8612     6138.09
92.8904     6043.12
92.9196     6020.62
92.9487     6124.73
92.9779     6181.54
93.0070     6154.63
93.0362     6020.86
93.0654     6130.17
93.0945     6013.76
93.1237     6097.52
93.1528     6208.30
93.1820     6108.21
93.2112     6075.56
93.2403     6110.88
93.2695     6064.13
93.2986     6095.37
93.3278     6105.96
93.3570     6158.29
93.3861     6108.89
93.4153     6082.29
93.4444     6165.27
93.4736     6171.43
93.5028     6121.19
93.5319     6109.53
93.5611     6144.29
93.5902     6101.08
93.6194     6036.73
93.6486     6013.74
93.6777     5989.61
93.7069     6016.96
93.7360     6068.14
93.7652     6183.98
93.7944     6225.38
93.8235     6040.98
93.8527     6066.00
93.8818     6232.70
93.9110     6241.30
93.9402     6146.00
93.9693     6119.10
93.9985     6109.82
94.0276     5909.12
94.0568     6060.82
94.0860     6085.57
94.1151     6016.48
94.1443     6394.40
94.1734     6202.29
94.2026     6159.84
94.2318     6065.12
94.2609     6069.66
94.2901     6065.26
94.3192     6027.38
94.3484     6108.18
94.3776     6120.51
94.4067     6124.71
94.4359     6109.25
94.4650     6006.93
94.4942     6069.67
94.5234     6248.77
94.5525     5985.42
94.5817     6162.51
94.6108     6016.67
94.6400     5870.12
94.6692     6061.18
94.6983     6013.88
94.7275     5963.31
94.7566     6031.20
94.7858     6187.01
94.8150     6078.11
94.8441     6122.08
94.8733     6087.81
94.9024     6136.27
94.9316     5936.32
94.9608     5981.45
94.9899     6025.70
95.0191     6050.37
95.0482     6035.48
95.0774     5982.15
95.1066     6045.43
95.1357     6035.20
95.1649     5967.74
95.1940     5891.83
95.2232     5963.15
95.2524     6005.65
95.2815     6029.91
95.3107     6052.04
95.3398     6055.43
95.3690     5992.20
95.3982     6097.26
95.4273     6036.62
95.4565     6003.94
95.4856     5917.74
95.5148     5951.09
95.5440     5991.49
95.5731     5938.58
95.6023     5861.47
95.6314     6023.73
95.6606     6064.95
95.6898     6057.61
95.7189     5972.44
95.7481     6094.20
95.7772     6080.24
95.8064     6012.70
95.8356     5907.46
95.8647     6032.63
95.8939     5927.09
95.9230     5998.83
95.9522     6024.22
95.9814     6024.51
96.0105     5936.21
96.0397     5849.65
96.0688     5974.93
96.0980     5983.60
96.1272     6000.69
96.1563     5956.17
96.1855     5898.20
96.2146     6112.50
96.2438     6209.72
96.2730     6041.46
96.3021     5908.01
96.3313     6023.93
96.3604     6079.52
96.3896     5980.06
96.4188     6004.91
96.4479     6034.48
96.4771     6033.59
96.5062     6047.98
96.5354     6107.91
96.5646     6069.69
96.5937     6079.78
96.6229     6077.37
96.6520     5986.35
96.6812     6019.56
96.7104     6038.65
96.7395     6105.44
96.7687     6011.09
96.7978     6000.16
96.8270     6066.10
96.8562     6094.03
96.8853     6154.12
96.9145     6166.90
96.9436     6035.12
96.9728     6078.60
97.0020     6116.90
97.0311     6006.81
97.0603     6105.67
97.0894     6146.93
97.1186     6153.19
97.1478     6135.66
97.1769     6153.24
97.2061     6135.24
97.2352     6072.49
97.2644     6072.73
97.2936     6116.72
97.3227     5994.24
97.3519     6034.36
97.3810     6157.31
97.4102     6068.52
97.4394     6049.54
97.4685     6193.26
97.4977     6296.63
97.5268     6238.88
97.5560     6200.47
97.5852     6120.89
97.6143     6137.40
97.6435     6238.56
97.6726     6223.65
97.7018     6227.17
97.7310     5950.75
97.7601     6209.51
97.7893     6100.81
97.8184     6158.40
97.8476     6144.31
97.8768     6229.42
97.9059     6320.51
97.9351     6268.63
97.9642     6161.50
97.9934     6215.49
98.0226     6181.58
98.0517     6072.50
98.0809     6127.00
98.1100     6145.20
98.1392     6197.54
98.1684     6231.74
98.1975     6066.26
98.2267     6197.97
98.2558     6234.16
98.2850     6255.18
98.3142     6236.86
98.3433     6186.64
98.3725     6161.13
98.4016     6188.01
98.4308     6226.72
98.4600     6243.06
98.4891     6221.24
98.5183     6153.41
98.5474     6019.65
98.5766     6060.65
98.6058     6078.97
98.6349     6047.90
98.6641     6004.72
98.6932     6092.16
98.7224     6143.99
98.7516     6098.82
98.7807     6017.54
98.8099     5973.05
98.8390     6000.37
98.8682     6015.37
98.8974     6075.44
98.9265     6071.62
98.9557     5970.45
98.9848     5972.88
99.0140     5957.58
99.0432     5915.50
99.0723     5938.56
99.1015     6037.59
99.1306     6119.91
99.1598     5989.40
99.1890     6001.22
99.2181     6006.99
99.2473     5986.63
99.2764     5963.57
99.3056     5961.12
99.3348     5948.36
99.3639     5989.85
99.3931     5953.61
99.4222     5975.41
99.4514     6013.58
99.4806     6007.59
99.5097     6087.05
99.5389     6151.48
99.5680     5958.24
99.5972     5904.94
99.6264     5979.41
99.6555     5954.85
99.6847     5940.86
99.7138     6000.73
99.7430     6008.62
99.7722     5958.70
99.8013     6010.12
99.8305     6096.47
99.8596     6149.35
99.8888     5978.64
99.9180     5897.84
99.9471     5934.16
99.9763     5844.56
100.0054     5892.31
100.0346     6000.95
100.0638     6086.03
100.0929     5989.63
100.1221     5935.20
100.1512     5874.84
100.1804     5911.50
100.2096     6058.31
100.2387     6075.51
100.2679     6011.68
100.2970     6019.97
100.3262     6037.61
100.3554     6016.12
100.3845     5925.94
100.4137     5918.27
100.4428     5938.93
100.4720     5874.97
100.5012     5922.90
100.5303     5912.38
100.5595     5864.55
100.5886     5883.58
100.6178     5882.12
100.6470     5855.23
100.6761     5876.39
100.7053     5891.46
100.7344     5849.42
100.7636     5949.30
100.7928     5865.56
100.8219     6070.90
100.8511     5981.31
100.8802     5959.69
100.9094     5885.53
100.9386     5902.97
100.9677     5774.34
100.9969     5838.74
101.0260     5839.65
101.0552     5915.66
101.0844     5883.44
101.1135     5827.80
101.1427     5891.86
101.1718     5844.79
101.2010     5891.29
101.2302     5811.81
101.2593     5910.18
101.2885     5803.23
101.3176     5713.27
101.3468     5772.49
101.3760     5773.82
101.4051     5807.81
101.4343     5725.65
101.4634     5914.98
101.4926     6008.43
101.5218     6067.99
101.5509     6026.57
101.5801     5913.78
101.6092     5834.31
101.6384     5845.88
101.6676     5786.38
101.6967     5793.11
101.7259     5838.16
101.7550     6018.76
101.7842     5904.62
101.8134     5892.16
101.8425     5906.85
101.8717     5916.62
101.9008     5963.16
101.9300     5837.47
101.9592     5941.69
101.9883     5908.51
102.0175     5877.20
102.0466     5984.09
102.0758     5998.83
102.1050     5982.06
102.1341     6083.99
102.1633     5879.50
102.1924     5919.11
102.2216     5872.52
102.2508     5983.42
102.2799     5917.85
102.3091     5797.56
102.3382     5676.89
102.3674     5903.38
102.3966     5961.20
102.4257     5970.94
102.4549     5968.15
102.4840     6074.70
102.5132     6008.18
102.5424     5883.32
102.5715     5880.04
102.6007     5903.32
102.6298     5834.77
102.6590     5969.88
102.6882     5963.84
102.7173     5787.60
102.7465     5922.38
102.7756     5969.43
102.8048     5868.80
102.8340     6039.38
102.8631     5960.45
102.8923     6035.85
102.9214     5964.15
102.9506     5888.57
102.9798     5837.25
103.0089     6046.31
103.0381     5929.53
103.0672     5970.46
103.0964     5928.64
103.1256     6076.61
103.1547     5920.63
103.1839     5929.62
103.2130     5838.25
103.2422     5767.35
103.2714     5957.29
103.3005     5885.86
103.3297     5982.48
103.3588     5935.07
103.3880     5867.30
103.4172     5882.33
103.4463     5794.64
103.4755     5839.43
103.5046     5797.96
103.5338     5780.07
103.5630     5874.65
103.5921     5927.77
103.6213     5868.81
103.6504     5850.26
103.6796     5706.31
103.7088     5784.74
103.7379     5880.11
103.7671     5979.73
103.7962     5872.90
103.8254     5836.74
103.8546     5745.68
103.8837     5862.48
103.9129     5894.84
103.9420     5764.98
103.9712     5945.23
104.0004     5859.42
104.0295     5926.39
104.0587     5934.19
104.0878     5888.95
104.1170     5905.31
104.1462     5798.83
104.1753     5801.40
104.2045     5861.69
104.2336     5930.00
104.2628     5899.98
104.2920     5855.34
104.3211     5898.33
104.3503     5844.04
104.3794     5809.63
104.4086     5853.42
104.4378     5777.38
104.4669     5796.60
104.4961     5821.81
104.5252     5813.34
104.5544     5827.05
104.5836     5842.75
104.6127     5955.36
104.6419     5866.97
104.6710     5825.67
104.7002     5770.75
104.7294     5835.38
104.7585     5680.59
104.7877     5695.87
104.8168     5735.44
104.8460     5667.26
104.8752     5866.74
104.9043     6001.19
104.9335     5980.56
104.9626     5948.75
104.9918     5855.45
105.0210     5777.77
105.0501     5696.66
105.0793     5701.38
105.1084     5786.03
105.1376     5986.13
105.1668     6038.67
105.1959     5933.82
105.2251     5897.23
105.2542     5881.37
105.2834     5919.96
105.3126     5843.84
105.3417     5758.41
105.3709     5758.12
105.4000     5719.35
105.4292     5753.70
105.4584     5724.12
105.4875     5809.03
105.5167     5912.49
105.5458     6073.87
105.5750     5933.11
105.6042     5855.10
105.6333     5917.67
105.6625     5787.07
105.6916     6008.61
105.7208     5979.13
105.7500     5934.66
105.7791     5777.27
105.8083     5754.54
105.8374     5754.14
105.8666     5817.18
105.8958     5800.27
105.9249     5872.93
105.9541     5825.43
105.9832     5834.87
106.0124     5811.58
106.0416     5755.19
106.0707     5914.69
106.0999     5944.05
106.1290     5842.76
106.1582     5873.30
106.1874     5883.28
106.2165     5808.62
106.2457     5771.08
106.2748     5627.44
106.3040     5893.58
106.3332     5823.60
106.3623     5761.32
106.3915     5899.04
106.4206     5783.52
106.4498     5818.75
106.4790     5875.05
106.5081     5957.69
106.5373     5887.33
106.5664     5908.85
106.5956     5774.19
106.6248     5779.20
106.6539     5730.69
106.6831     5756.55
106.7122     5825.91
106.7414     5818.02
106.7706     5844.90
106.7997     5873.95
106.8289     5864.99
106.8580     5810.59
106.8872     5869.77
106.9164     5762.68
106.9455     5872.23
106.9747     5825.14
107.0038     5866.05
107.0330     5873.92
107.0622     5874.96
107.0913     5833.08
107.1205     5844.42
107.1496     5857.93
107.1788     5897.51
107.2080     6003.51
107.2371     5901.10
107.2663     5814.17
107.2954     5846.73
107.3246     5752.85
107.3538     5718.46
107.3829     5741.79
107.4121     5726.58
107.4412     5804.27
107.4704     5887.74
107.4996     5832.82
107.5287     5824.67
107.5579     5779.08
107.5870     5719.19
107.6162     5784.82
107.6454     5819.82
107.6745     5866.36
107.7037     5875.54
107.7328     5806.08
107.7620     5794.21
107.7912     5799.40
107.8203     5799.08
107.8495     5850.47
107.8786     5918.33
107.9078     5797.27
107.9370     5930.36
107.9661     6080.27
107.9953     5682.46
108.0244     5866.42
108.0536     5767.98
108.0828     5703.71
108.1119     5829.22
108.1411     5860.00
108.1702     5952.64
108.1994     5821.97
108.2286     5645.57
108.2577     5603.46
108.2869     5675.25
108.3160     5763.95
108.3452     5797.25
108.3744     5794.83
108.4035     5927.96
108.4327     5999.44
108.4618     5900.29
108.4910     5755.42
108.5202     5719.61
108.5493     5606.31
108.5785     5653.72
108.6076     5816.58
108.6368     5869.80
108.6660     5831.75
108.6951     5814.20
108.7243     5724.23
108.7534     5811.71
108.7826     5633.34
108.8118     5724.11
108.8409     5712.72
108.8701     5592.38
108.8992     5789.40
108.9284     5747.57
108.9576     5726.04
108.9867     5751.30
109.0159     5785.69
109.0450     5691.61
109.0742     5639.15
109.1034     5673.73
109.1325     5680.71
109.1617     5620.69
109.1908     5531.57
109.2200     5542.61
109.2492     5734.33
109.2783     5822.08
109.3075     5698.69
109.3366     5706.15
109.3658     5639.90
109.3950     5679.30
109.4241     5581.03
109.4533     5738.51
109.4824     5688.98
109.5116     5497.44
109.5408     5607.58
109.5699     5608.90
109.5991     5651.84
109.6282     5621.35
109.6574     5542.96
109.6866     5671.08
109.7157     5611.91
109.7449     5687.94
109.7740     5775.89
109.8032     5629.91
109.8324     5597.09
109.8615     5689.06
109.8907     5685.00
109.9198     5741.39
109.9490     5711.97
109.9782     5712.44
110.0073     5638.20
110.0365     5552.26
110.0656     5640.55
110.0948     5706.26
110.1240     5734.64
110.1531     5543.20
110.1823     5582.23
110.2114     5752.55
110.2406     5705.16
110.2698     5748.82
110.2989     5651.29
110.3281     5594.71
110.3572     5711.53
110.3864     5615.91
110.4156     5680.76
110.4447     5520.79
110.4739     5569.56
110.5030     5416.62
110.5322     5465.58
110.5614     5547.34
110.5905     5599.51
110.6197     5590.23
110.6488     5579.73
110.6780     5639.16
110.7072     5652.22
110.7363     5534.20
110.7655     5484.73
110.7946     5487.46
110.8238     5586.98
110.8530     5618.06
110.8821     5563.28
110.9113     5673.75
110.9404     5574.29
110.9696     5512.13
110.9988     5507.92
111.0279     5547.24
111.0571     5681.16
111.0862     5482.67
111.1154     5523.55
111.1446     5773.49
111.1737     5582.23
111.2029     5543.98
111.2320     5550.77
111.2612     5620.73
111.2904     5568.35
111.3195     5562.18
111.3487     5702.06
111.3778     5677.73
111.4070     5645.73
111.4362     5607.27
111.4653     5613.09
111.4945     5644.10
111.5236     5733.44
111.5528     5739.89
111.5820     5726.31
111.6111     5639.85
111.6403     5616.30
111.6694     5697.74
111.6986     5755.48
111.7278     5710.33
111.7569     5507.44
111.7861     5569.38
111.8152     5837.01
111.8444     5729.78
111.8736     5798.44
111.9027     5773.53
111.9319     5768.30
111.9610     5817.15
111.9902     5975.89
112.0194     5855.44
112.0485     5744.27
112.0777     5717.84
112.1068     5708.94
112.1360     5648.66
112.1652     5613.94
112.1943     5714.73
112.2235     5827.91
112.2526     5860.01
112.2818     5867.90
112.3110     5847.29
112.3401     5726.78
112.3693     5765.41
112.3984     5798.55
112.4276     5759.75
112.4568     5679.88
112.4859     5761.17
112.5151     5743.16
112.5442     5757.41
112.5734     5751.06
112.6026     5515.81
112.6317     5650.52
112.6609     5698.23
112.6900     5661.76
112.7192     5979.57
112.7484     5833.84
112.7775     5854.80
112.8067     5811.89
112.8358     5929.19
112.8650     5979.30
112.8942     5986.37
112.9233     5846.96
112.9525     5735.97
112.9816     5812.90
113.0108     5787.37
113.0400     5855.17
113.0691     5770.82
113.0983     5832.36
113.1274     5877.53
113.1566     5740.30
113.1858     5805.35
113.2149     5781.54
113.2441     5910.46
113.2732     5966.36
113.3024     5880.68
113.3316     5817.34
113.3607     5902.24
113.3899     5730.27
113.4190     5785.80
113.4482     5790.51
113.4774     5883.61
113.5065     6017.69
113.5357     6091.00
113.5648     5951.90
113.5940     5849.23
113.6232     5824.59
113.6523     5896.06
113.6815     5993.33
113.7106     5974.26
113.7398     6021.55
113.7690     6009.33
113.7981     5981.72
113.8273     5971.35
113.8564     5960.72
113.8856     6111.75
113.9148     6263.03
113.9439     6309.53
113.9731     6364.68
114.0022     6285.82
114.0314     6296.61
114.0606     6409.59
114.0897     6467.93
114.1189     6513.28
114.1480     6598.97
114.1772     6720.81
114.2064     6761.71
114.2355     6735.07
114.2647     6954.93
114.2938     6953.57
114.3230     6983.52
114.3522     7166.97
114.3813     7179.99
114.4105     7333.51
114.4396     7429.12
114.4688     7654.13
114.4980     7903.41
114.5271     8057.72
114.5563     8159.26
114.5854     8261.98
114.6146     8666.08
114.6438     9102.26
114.6729     9452.59
114.7021     9679.67
114.7312    10071.95
114.7604    10351.32
114.7896    10833.84
114.8187    11020.14
114.8479    10935.72
114.8770    11191.37
114.9062    11287.64
114.9354    11408.17
114.9645    11184.04
114.9937    10617.11
115.0228    10122.05
115.0520     9216.25
115.0812     7866.59
115.1103     6390.94
115.1395     4772.98
115.1686     3255.60
115.1978     2035.49
115.2270     1099.11
115.2561      573.26
115.2853      351.17
115.3144      269.17
115.3436      218.17
115.3728      180.63
115.4019      145.40
115.4311      119.36
115.4602       93.52
115.4894       92.62
115.5186      100.30
115.5477       89.99
115.5769       91.25
115.6060       66.04
115.6352       66.41
115.6644       58.84
115.6935       56.83
115.7227       66.58
115.7518       56.20
115.7810       63.50
115.8102       57.13
115.8393       54.02
115.8685       55.11
115.8976       58.00
115.9268       66.98
115.9560       60.16
115.9851       59.79
116.0143       55.71
116.0434       56.63
116.0726       55.18
116.1018       58.61
116.1309       50.99
116.1601       44.69
116.1892       43.33
116.2184       39.50
116.2476       44.26
116.2767       50.28
116.3059       51.39
116.3350       45.22
116.3642       48.11
116.3934       51.72
116.4225       49.74
116.4517       41.90
116.4808       42.48
116.5100       43.86
116.5392       46.70
116.5683       43.26
116.5975       44.95
