 0.1033       28.01
 0.1324       23.53
 0.1616       25.81
 0.1908       25.60
 0.2199       27.79
 0.2491       26.55
 0.2782       24.29
 0.3074       23.48
 0.3366       29.03
 0.3657       29.84
 0.3949       26.25
 0.4240       29.95
 0.4532       25.61
 0.4824       28.58
 0.5115       28.39
 0.5407       22.70
 0.5698       27.05
 0.5990       30.82
 0.6282       29.13
 0.6573       23.32
 0.6865       25.81
 0.7156       26.46
 0.7448       30.42
 0.7740       31.00
 0.8031       30.11
 0.8323       35.84
 0.8614       38.39
 0.8906       31.52
 0.9198       28.55
 0.9489       28.51
 0.9781       33.06
 1.0072       29.22
 1.0364       29.37
 1.0656       35.65
 1.0947       38.68
 1.1239       33.71
 1.1530       26.08
 1.1822       31.14
 1.2114       29.33
 1.2405       25.62
 1.2697       24.74
 1.2988       25.28
 1.3280       21.43
 1.3572       19.66
 1.3863       23.38
 1.4155       23.62
 1.4446       36.28
 1.4738       32.76
 1.5030       31.89
 1.5321       34.47
 1.5613       31.27
 1.5904       23.19
 1.6196       30.22
 1.6488       39.24
 1.6779       33.88
 1.7071       33.61
 1.7362       33.19
 1.7654       35.48
 1.7946       23.45
 1.8237       37.97
 1.8529       27.24
 1.8820       31.97
 1.9112       38.30
 1.9404       36.32
 1.9695       36.00
 1.9987       32.33
 2.0278       41.28
 2.0570       41.06
 2.0862       42.90
 2.1153       35.30
 2.1445       43.77
 2.1736       46.96
 2.2028       40.02
 2.2320       45.10
 2.2611       57.96
 2.2903       56.09
 2.3194       58.62
 2.3486       50.37
 2.3778       57.19
 2.4069       60.46
 2.4361       65.39
 2.4652       59.49
 2.4944       64.11
 2.5236       64.64
 2.5527       61.07
 2.5819       53.99
 2.6110       46.61
 2.6402       40.16
 2.6694       48.84
 2.6985       61.06
 2.7277       58.20
 2.7568       57.94
 2.7860       37.89
 2.8152       37.50
 2.8443       49.24
 2.8735       47.70
 2.9026       41.27
 2.9318       44.50
 2.9610       46.67
 2.9901       40.20
 3.0193       49.38
 3.0484       47.03
 3.0776       44.00
 3.1068       42.69
 3.1359       42.22
 3.1651       44.50
 3.1942       48.71
 3.2234       38.06
 3.2526       35.80
 3.2817       38.64
 3.3109       38.05
 3.3400       34.43
 3.3692       35.00
 3.3984       43.63
 3.4275       47.95
 3.4567       41.95
 3.4858       41.05
 3.5150       40.00
 3.5442       40.49
 3.5733       40.52
 3.6025       41.53
 3.6316       42.54
 3.6608       45.76
 3.6900       46.31
 3.7191       41.56
 3.7483       42.51
 3.7774       47.38
 3.8066       39.90
 3.8358       37.70
 3.8649       41.88
 3.8941       48.75
 3.9232       40.31
 3.9524       35.32
 3.9816       39.35
 4.0107       44.41
 4.0399       46.69
 4.0690       40.67
 4.0982       41.57
 4.1274       35.04
 4.1565       32.00
 4.1857       32.75
 4.2148       35.27
 4.2440       39.07
 4.2732       28.35
 4.3023       34.45
 4.3315       44.18
 4.3606       55.70
 4.3898       40.80
 4.4190       53.59
 4.4481       44.40
 4.4773       42.85
 4.5064       55.91
 4.5356       43.19
 4.5648       33.95
 4.5939       29.43
 4.6231       31.71
 4.6522       41.13
 4.6814       44.77
 4.7106       45.00
 4.7397       39.34
 4.7689       46.63
 4.7980       56.64
 4.8272       43.36
 4.8564       36.11
 4.8855       38.98
 4.9147       39.02
 4.9438       44.08
 4.9730       48.70
 5.0022       37.35
 5.0313       46.95
 5.0605       45.72
 5.0896       40.87
 5.1188       39.38
 5.1480       43.57
 5.1771       38.43
 5.2063       33.85
 5.2354       41.00
 5.2646       43.26
 5.2938       60.09
 5.3229       62.63
 5.3521       37.31
 5.3812       40.32
 5.4104       45.77
 5.4396       42.78
 5.4687       53.44
 5.4979       46.80
 5.5270       47.93
 5.5562       50.29
 5.5854       37.51
 5.6145       46.80
 5.6437       42.54
 5.6728       49.47
 5.7020       45.54
 5.7312       38.72
 5.7603       40.92
 5.7895       45.58
 5.8186       43.74
 5.8478       48.47
 5.8770       45.30
 5.9061       51.62
 5.9353       47.35
 5.9644       49.80
 5.9936       53.37
 6.0228       57.03
 6.0519       57.74
 6.0811       51.00
 6.1102       49.37
 6.1394       44.51
 6.1686       46.10
 6.1977       49.09
 6.2269       47.11
 6.2560       50.55
 6.2852       50.46
 6.3144       51.47
 6.3435       54.88
 6.3727       56.04
 6.4018       53.50
 6.4310       57.07
 6.4602       54.27
 6.4893       53.26
 6.5185       60.14
 6.5476       62.00
 6.5768       58.68
 6.6060       56.56
 6.6351       63.29
 6.6643       69.74
 6.6934       68.05
 6.7226       61.81
 6.7518       61.43
 6.7809       65.46
 6.8101       64.50
 6.8392       64.27
 6.8684       66.93
 6.8976       70.61
 6.9267       81.24
 6.9559       77.31
 6.9850       77.07
 7.0142       77.63
 7.0434       82.56
 7.0725       72.34
 7.1017       62.73
 7.1308       68.93
 7.1600       81.48
 7.1892       89.43
 7.2183       82.79
 7.2475       84.53
 7.2766       98.21
 7.3058       85.03
 7.3350      101.06
 7.3641      108.58
 7.3933      128.92
 7.4224      150.90
 7.4516      157.44
 7.4808      188.40
 7.5099      214.91
 7.5391      240.79
 7.5682      262.77
 7.5974      336.91
 7.6266      362.80
 7.6557      438.12
 7.6849      515.77
 7.7140      771.49
 7.7432     1140.29
 7.7724     1520.31
 7.8015     1886.65
 7.8307     2291.03
 7.8598     2647.35
 7.8890     3059.83
 7.9182     3318.79
 7.9473     3620.87
 7.9765     4009.57
 8.0056     4187.26
 8.0348     4354.58
 8.0640     4756.34
 8.0931     4828.27
 8.1223     5110.99
 8.1514     5126.49
 8.1806     5246.14
 8.2098     5259.60
 8.2389     5338.54
 8.2681     5251.74
 8.2972     5331.42
 8.3264     5386.80
 8.3556     5383.40
 8.3847     5390.70
 8.4139     5397.43
 8.4430     5348.24
 8.4722     5310.06
 8.5014     5253.82
 8.5305     5317.38
 8.5597     5296.37
 8.5888     5325.43
 8.6180     5384.68
 8.6472     5286.80
 8.6763     5280.05
 8.7055     5345.78
 8.7346     5387.79
 8.7638     5165.12
 8.7930     5351.23
 8.8221     5268.37
 8.8513     5280.99
 8.8804     5193.71
 8.9096     5298.86
 8.9388     5373.71
 8.9679     5273.39
 8.9971     5223.80
 9.0262     5240.01
 9.0554     5240.53
 9.0846     5299.21
 9.1137     5132.18
 9.1429     5149.10
 9.1720     5131.00
 9.2012     5133.85
 9.2304     5160.31
 9.2595     5205.29
 9.2887     5164.40
 9.3178     5140.42
 9.3470     5193.44
 9.3762     5083.52
 9.4053     5116.51
 9.4345     5031.09
 9.4636     4944.04
 9.4928     5041.14
 9.5220     5128.11
 9.5511     5150.17
 9.5803     5182.71
 9.6094     5097.96
 9.6386     5070.23
 9.6678     5002.54
 9.6969     5041.55
 9.7261     5099.93
 9.7552     4955.65
 9.7844     4992.03
 9.8136     5087.13
 9.8427     5029.42
 9.8719     4962.39
 9.9010     4923.91
 9.9302     4987.43
 9.9594     5032.17
 9.9885     4993.98
10.0177     5087.85
10.0468     5075.28
10.0760     4953.41
10.1052     4992.35
10.1343     5087.52
10.1635     5062.66
10.1926     5094.68
10.2218     5071.94
10.2510     4974.05
10.2801     4988.04
10.3093     5018.85
10.3384     4971.20
10.3676     4957.09
10.3968     4975.40
10.4259     5023.64
10.4551     5020.07
10.4842     5053.01
10.5134     5083.09
10.5426     4995.19
10.5717     4987.16
10.6009     5001.63
10.6300     4999.73
10.6592     5061.14
10.6884     5104.85
10.7175     5124.04
10.7467     5106.28
10.7758     5119.80
10.8050     5106.82
10.8342     5077.14
10.8633     5027.39
10.8925     4956.96
10.9216     4984.98
10.9508     5052.60
10.9800     5015.31
11.0091     5070.55
11.0383     5164.47
11.0674     5120.39
11.0966     5061.92
11.1258     5106.28
11.1549     5135.43
11.1841     5131.38
11.2132     5162.33
11.2424     5135.60
11.2716     5146.44
11.3007     5180.77
11.3299     5153.30
11.3590     5134.65
11.3882     5127.20
11.4174     5109.27
11.4465     5080.29
11.4757     4975.06
11.5048     4998.84
11.5340     5079.81
11.5632     5083.84
11.5923     5081.08
11.6215     5232.14
11.6506     5112.12
11.6798     5115.99
11.7090     5180.08
11.7381     5149.10
11.7673     5212.50
11.7964     5313.79
11.8256     5325.13
11.8548     5327.18
11.8839     5215.36
11.9131     5136.65
11.9422     5201.29
11.9714     5106.23
12.0006     5184.74
12.0297     5117.34
12.0589     5129.02
12.0880     5196.02
12.1172     5177.07
12.1464     5258.21
12.1755     5320.81
12.2047     5242.02
12.2338     5311.46
12.2630     5248.92
12.2922     5265.45
12.3213     5260.95
12.3505     5379.97
12.3796     5266.62
12.4088     5244.33
12.4380     5292.60
12.4671     5287.43
12.4963     5288.90
12.5254     5344.78
12.5546     5285.49
12.5838     5236.73
12.6129     5104.26
12.6421     5210.94
12.6712     5153.09
12.7004     5149.99
12.7296     5308.07
12.7587     5247.21
12.7879     5279.56
12.8170     5349.60
12.8462     5207.58
12.8754     5147.79
12.9045     5273.91
12.9337     5343.77
12.9628     5390.44
12.9920     5245.17
13.0212     5199.60
13.0503     5242.86
13.0795     5203.45
13.1086     5320.40
13.1378     5298.87
13.1670     5219.08
13.1961     5236.92
13.2253     5283.82
13.2544     5246.84
13.2836     5306.55
13.3128     5222.32
13.3419     5155.10
13.3711     5296.37
13.4002     5307.37
13.4294     5338.70
13.4586     5170.67
13.4877     5275.63
13.5169     5369.34
13.5460     5318.34
13.5752     5317.11
13.6044     5256.89
13.6335     5269.25
13.6627     5151.08
13.6918     5179.01
13.7210     5264.93
13.7502     5422.35
13.7793     5365.86
13.8085     5314.11
13.8376     5246.96
13.8668     5305.57
13.8960     5267.52
13.9251     5412.33
13.9543     5315.18
13.9834     5253.27
14.0126     5467.29
14.0418     5340.63
14.0709     5309.58
14.1001     5458.15
14.1292     5302.64
14.1584     5381.11
14.1876     5272.35
14.2167     5341.47
14.2459     5294.93
14.2750     5261.15
14.3042     5416.71
14.3334     5394.71
14.3625     5372.19
14.3917     5378.99
14.4208     5412.83
14.4500     5471.37
14.4792     5465.90
14.5083     5487.22
14.5375     5414.18
14.5666     5500.69
14.5958     5403.43
14.6250     5570.06
14.6541     5556.19
14.6833     5391.91
14.7124     5474.44
14.7416     5376.72
14.7708     5388.56
14.7999     5371.75
14.8291     5401.80
14.8582     5463.70
14.8874     5379.77
14.9166     5320.80
14.9457     5347.71
14.9749     5439.36
15.0040     5405.69
15.0332     5395.73
15.0624     5360.04
15.0915     5373.53
15.1207     5385.48
15.1498     5347.20
15.1790     5304.09
15.2082     5256.19
15.2373     5309.25
15.2665     5311.02
15.2956     5276.76
15.3248     5359.29
15.3540     5424.47
15.3831     5455.82
15.4123     5310.04
15.4414     5428.59
15.4706     5421.63
15.4998     5360.64
15.5289     5256.34
15.5581     5316.32
15.5872     5386.41
15.6164     5380.74
15.6456     5340.80
15.6747     5291.52
15.7039     5350.45
15.7330     5331.82
15.7622     5364.34
15.7914     5317.26
15.8205     5376.14
15.8497     5357.46
15.8788     5379.75
15.9080     5446.64
15.9372     5430.31
15.9663     5477.49
15.9955     5402.71
16.0246     5263.80
16.0538     5356.79
16.0830     5364.75
16.1121     5380.65
16.1413     5404.44
16.1704     5354.95
16.1996     5328.66
16.2288     5400.81
16.2579     5340.73
16.2871     5301.24
16.3162     5301.41
16.3454     5302.91
16.3746     5350.30
16.4037     5438.64
16.4329     5479.75
16.4620     5375.23
16.4912     5446.44
16.5204     5478.13
16.5495     5368.75
16.5787     5426.11
16.6078     5452.07
16.6370     5418.73
16.6662     5484.95
16.6953     5461.63
16.7245     5382.66
16.7536     5464.20
16.7828     5444.57
16.8120     5397.01
16.8411     5302.51
16.8703     5313.22
16.8994     5313.94
16.9286     5327.83
16.9578     5435.77
16.9869     5477.37
17.0161     5382.26
17.0452     5316.93
17.0744     5399.10
17.1036     5453.17
17.1327     5467.67
17.1619     5458.41
17.1910     5343.25
17.2202     5357.19
17.2494     5398.40
17.2785     5420.21
17.3077     5512.28
17.3368     5523.22
17.3660     5445.24
17.3952     5362.00
17.4243     5403.32
17.4535     5420.29
17.4826     5413.39
17.5118     5418.54
17.5410     5426.47
17.5701     5442.32
17.5993     5358.84
17.6284     5324.95
17.6576     5409.60
17.6868     5427.60
17.7159     5426.06
17.7451     5367.55
17.7742     5366.99
17.8034     5393.32
17.8326     5414.40
17.8617     5499.74
17.8909     5502.64
17.9200     5423.00
17.9492     5450.34
17.9784     5372.38
18.0075     5428.30
18.0367     5464.44
18.0658     5568.88
18.0950     5487.60
18.1242     5456.44
18.1533     5423.06
18.1825     5432.75
18.2116     5387.02
18.2408     5538.70
18.2700     5528.75
18.2991     5527.05
18.3283     5522.62
18.3574     5510.92
18.3866     5469.17
18.4158     5423.17
18.4449     5472.07
18.4741     5413.12
18.5032     5408.05
18.5324     5425.92
18.5616     5441.92
18.5907     5430.59
18.6199     5460.33
18.6490     5462.83
18.6782     5308.04
18.7074     5268.94
18.7365     5345.44
18.7657     5412.16
18.7948     5340.53
18.8240     5589.04
18.8532     5380.96
18.8823     5472.18
18.9115     5483.33
18.9406     5365.61
18.9698     5404.35
18.9990     5497.86
19.0281     5411.07
19.0573     5348.54
19.0864     5459.45
19.1156     5424.53
19.1448     5382.06
19.1739     5524.82
19.2031     5437.35
19.2322     5445.29
19.2614     5463.76
19.2906     5403.05
19.3197     5439.14
19.3489     5324.58
19.3780     5421.01
19.4072     5311.26
19.4364     5452.91
19.4655     5435.50
19.4947     5466.45
19.5238     5458.71
19.5530     5434.43
19.5822     5438.19
19.6113     5470.69
19.6405     5606.26
19.6696     5433.19
19.6988     5478.45
19.7280     5511.82
19.7571     5550.59
19.7863     5567.44
19.8154     5530.36
19.8446     5573.41
19.8738     5542.34
19.9029     5487.36
19.9321     5541.97
19.9612     5503.54
19.9904     5454.50
20.0196     5496.85
20.0487     5474.43
20.0779     5424.80
20.1070     5482.92
20.1362     5575.34
20.1654     5545.95
20.1945     5498.40
20.2237     5551.25
20.2528     5557.60
20.2820     5576.46
20.3112     5565.97
20.3403     5471.88
20.3695     5451.99
20.3986     5492.07
20.4278     5481.97
20.4570     5487.06
20.4861     5528.90
20.5153     5528.26
20.5444     5517.55
20.5736     5530.55
20.6028     5539.86
20.6319     5504.98
20.6611     5517.43
20.6902     5539.24
20.7194     5543.08
20.7486     5456.58
20.7777     5394.08
20.8069     5449.87
20.8360     5442.32
20.8652     5457.12
20.8944     5480.25
20.9235     5492.55
20.9527     5440.99
20.9818     5474.25
21.0110     5416.14
21.0402     5486.93
21.0693     5437.95
21.0985     5558.92
21.1276     5427.03
21.1568     5478.72
21.1860     5349.86
21.2151     5511.42
21.2443     5513.73
21.2734     5494.91
21.3026     5430.05
21.3318     5567.86
21.3609     5561.21
21.3901     5451.01
21.4192     5617.87
21.4484     5574.52
21.4776     5493.21
21.5067     5492.92
21.5359     5721.37
21.5650     5496.31
21.5942     5425.00
21.6234     5473.93
21.6525     5347.43
21.6817     5294.38
21.7108     5469.11
21.7400     5463.11
21.7692     5445.30
21.7983     5442.19
21.8275     5561.71
21.8566     5544.02
21.8858     5614.61
21.9150     5525.98
21.9441     5479.69
21.9733     5486.31
22.0024     5415.73
22.0316     5441.56
22.0608     5536.31
22.0899     5580.47
22.1191     5612.82
22.1482     5578.15
22.1774     5524.31
22.2066     5507.82
22.2357     5559.44
22.2649     5526.80
22.2940     5433.40
22.3232     5430.05
22.3524     5476.57
22.3815     5459.16
22.4107     5504.89
22.4398     5599.66
22.4690     5521.19
22.4982     5388.56
22.5273     5374.98
22.5565     5492.03
22.5856     5579.08
22.6148     5551.52
22.6440     5573.09
22.6731     5566.22
22.7023     5593.20
22.7314     5510.67
22.7606     5473.47
22.7898     5530.73
22.8189     5586.92
22.8481     5466.16
22.8772     5494.34
22.9064     5617.44
22.9356     5483.12
22.9647     5569.62
22.9939     5478.43
23.0230     5569.27
23.0522     5522.74
23.0814     5535.69
23.1105     5720.18
23.1397     5492.54
23.1688     5430.25
23.1980     5527.20
23.2272     5507.21
23.2563     5359.93
23.2855     5495.69
23.3146     5623.62
23.3438     5551.02
23.3730     5506.87
23.4021     5644.36
23.4313     5517.84
23.4604     5436.94
23.4896     5506.89
23.5188     5523.03
23.5479     5457.60
23.5771     5458.00
23.6062     5523.96
23.6354     5586.71
23.6646     5598.80
23.6937     5624.85
23.7229     5589.79
23.7520     5695.03
23.7812     5647.88
23.8104     5537.04
23.8395     5613.82
23.8687     5523.95
23.8978     5521.58
23.9270     5558.55
23.9562     5516.77
23.9853     5521.08
24.0145     5552.44
24.0436     5552.66
24.0728     5559.18
24.1020     5593.97
24.1311     5646.39
24.1603     5586.02
24.1894     5567.53
24.2186     5617.48
24.2478     5580.85
24.2769     5543.17
24.3061     5491.56
24.3352     5454.76
24.3644     5535.17
24.3936     5596.07
24.4227     5544.93
24.4519     5507.86
24.4810     5526.14
24.5102     5575.32
24.5394     5652.07
24.5685     5559.71
24.5977     5534.45
24.6268     5580.91
24.6560     5550.66
24.6852     5659.18
24.7143     5660.03
24.7435     5517.84
24.7726     5513.64
24.8018     5649.14
24.8310     5597.65
24.8601     5657.14
24.8893     5539.68
24.9184     5467.49
24.9476     5628.58
24.9768     5717.04
25.0059     5560.19
25.0351     5643.07
25.0642     5574.31
25.0934     5605.43
25.1226     5447.83
25.1517     5655.91
25.1809     5681.58
25.2100     5544.40
25.2392     5659.77
25.2684     5527.33
25.2975     5659.64
25.3267     5551.20
25.3558     5591.73
25.3850     5640.13
25.4142     5536.90
25.4433     5613.63
25.4725     5557.06
25.5016     5586.17
25.5308     5554.41
25.5600     5722.93
25.5891     5598.70
25.6183     5622.22
25.6474     5568.45
25.6766     5664.03
25.7058     5680.81
25.7349     5623.57
25.7641     5634.02
25.7932     5632.67
25.8224     5551.39
25.8516     5576.89
25.8807     5643.83
25.9099     5691.21
25.9390     5693.19
25.9682     5697.29
25.9974     5665.52
26.0265     5591.01
26.0557     5671.69
26.0848     5712.15
26.1140     5808.30
26.1432     5841.74
26.1723     5757.12
26.2015     5687.56
26.2306     5632.56
26.2598     5522.47
26.2890     5504.86
26.3181     5566.22
26.3473     5572.80
26.3764     5544.45
26.4056     5521.55
26.4348     5580.83
26.4639     5637.69
26.4931     5698.33
26.5222     5755.38
26.5514     5720.44
26.5806     5701.82
26.6097     5625.26
26.6389     5601.06
26.6680     5594.06
26.6972     5551.24
26.7264     5639.84
26.7555     5571.06
26.7847     5570.01
26.8138     5607.92
26.8430     5606.19
26.8722     5704.78
26.9013     5642.10
26.9305     5545.18
26.9596     5579.98
26.9888     5621.07
27.0180     5680.86
27.0471     5701.85
27.0763     5575.65
27.1054     5603.38
27.1346     5614.35
27.1638     5615.78
27.1929     5699.14
27.2221     5673.09
27.2512     5540.69
27.2804     5564.06
27.3096     5574.47
27.3387     5675.95
27.3679     5609.40
27.3970     5670.34
27.4262     5764.97
27.4554     5865.36
27.4845     5704.91
27.5137     5777.96
27.5428     5698.90
27.5720     5761.14
27.6012     5816.54
27.6303     5837.69
27.6595     5575.38
27.6886     5752.18
27.7178     5818.90
27.7470     5779.25
27.7761     5604.42
27.8053     5851.66
27.8344     5678.25
27.8636     5776.53
27.8928     5610.47
27.9219     5755.55
27.9511     5686.00
27.9802     5688.79
28.0094     5741.15
28.0386     5727.02
28.0677     5825.45
28.0969     5891.22
28.1260     5867.91
28.1552     5896.13
28.1844     5685.26
28.2135     5752.57
28.2427     5722.17
28.2718     5643.46
28.3010     5565.12
28.3302     5601.00
28.3593     5647.84
28.3885     5733.44
28.4176     5983.62
28.4468     6040.33
28.4760     5876.50
28.5051     5706.97
28.5343     5808.87
28.5634     5828.60
28.5926     5810.46
28.6218     5710.66
28.6509     5785.77
28.6801     5849.14
28.7092     5826.78
28.7384     5877.29
28.7676     5827.78
28.7967     5864.62
28.8259     5814.88
28.8550     5964.33
28.8842     5839.95
28.9134     5957.30
28.9425     5936.01
28.9717     5974.47
29.0008     6074.21
29.0300     6159.86
29.0592     6129.28
29.0883     6006.53
29.1175     6116.81
29.1466     6101.68
29.1758     6042.02
29.2050     6179.41
29.2341     6204.36
29.2633     6263.27
29.2924     6221.22
29.3216     6150.79
29.3508     6249.61
29.3799     6171.72
29.4091     6415.33
29.4382     6269.48
29.4674     6434.70
29.4966     6312.36
29.5257     6390.37
29.5549     6615.92
29.5840     6501.19
29.6132     6413.17
29.6424     6512.63
29.6715     6442.13
29.7007     6458.76
29.7298     6596.01
29.7590     6481.97
29.7882     6771.49
29.8173     6789.92
29.8465     6754.64
29.8756     6802.22
29.9048     6781.33
29.9340     6768.83
29.9631     6827.46
29.9923     6826.61
30.0214     6662.16
30.0506     6579.96
30.0798     6698.60
30.1089     6780.83
30.1381     6879.37
30.1672     6762.64
30.1964     6574.41
30.2256     6714.75
30.2547     6614.41
30.2839     6624.69
30.3130     6476.99
30.3422     6539.27
30.3714     6420.60
30.4005     6344.65
30.4297     6361.17
30.4588     6344.28
30.4880     6290.24
30.5172     6356.52
30.5463     6260.82
30.5755     6280.03
30.6046     6187.69
30.6338     6295.25
30.6630     6068.33
30.6921     6152.08
30.7213     6148.15
30.7504     6089.84
30.7796     6223.35
30.8088     6160.77
30.8379     6153.75
30.8671     6081.25
30.8962     6012.05
30.9254     6028.26
30.9546     5908.65
30.9837     5990.92
31.0129     5961.85
31.0420     5915.49
31.0712     5878.78
31.1004     5921.18
31.1295     5928.67
31.1587     5962.30
31.1878     5843.79
31.2170     5755.12
31.2462     5734.79
31.2753     5669.27
31.3045     5774.99
31.3336     5681.01
31.3628     5777.01
31.3920     5855.19
31.4211     5817.09
31.4503     5834.21
31.4794     5839.99
31.5086     5796.63
31.5378     5740.13
31.5669     5667.27
31.5961     5686.96
31.6252     5740.82
31.6544     5714.48
31.6836     5736.97
31.7127     5792.92
31.7419     5791.45
31.7710     5795.74
31.8002     5719.43
31.8294     5646.16
31.8585     5642.55
31.8877     5679.25
31.9168     5694.47
31.9460     5715.32
31.9752     5672.22
32.0043     5652.91
32.0335     5694.72
32.0626     5745.05
32.0918     5698.12
32.1210     5675.39
32.1501     5741.14
32.1793     5708.16
32.2084     5637.78
32.2376     5616.92
32.2668     5687.71
32.2959     5678.29
32.3251     5665.05
32.3542     5680.98
32.3834     5682.33
32.4126     5858.71
32.4417     5882.73
32.4709     5761.27
32.5000     5784.00
32.5292     5770.91
32.5584     5774.21
32.5875     5740.94
32.6167     5736.22
32.6458     5730.68
32.6750     5684.66
32.7042     5647.93
32.7333     5704.80
32.7625     5826.42
32.7916     5845.05
32.8208     5802.67
32.8500     5788.00
32.8791     5819.58
32.9083     5770.62
32.9374     5781.41
32.9666     5657.14
32.9958     5605.44
33.0249     5649.52
33.0541     5666.05
33.0832     5643.06
33.1124     5705.99
33.1416     5693.20
33.1707     5736.98
33.1999     5722.40
33.2290     5701.75
33.2582     5624.14
33.2874     5658.98
33.3165     5773.03
33.3457     5722.91
33.3748     5742.55
33.4040     5938.85
33.4332     5874.50
33.4623     5690.31
33.4915     5636.91
33.5206     5673.50
33.5498     5683.88
33.5790     5590.32
33.6081     5600.01
33.6373     5647.91
33.6664     5743.71
33.6956     5778.95
33.7248     5785.97
33.7539     5737.18
33.7831     5704.30
33.8122     5682.59
33.8414     5805.36
33.8706     5783.42
33.8997     5745.35
33.9289     5694.62
33.9580     5794.04
33.9872     5721.56
34.0164     5613.86
34.0455     5678.47
34.0747     5662.14
34.1038     5691.21
34.1330     5828.00
34.1622     5848.59
34.1913     5767.95
34.2205     5816.87
34.2496     5806.78
34.2788     5707.32
34.3080     5742.87
34.3371     5849.82
34.3663     5839.17
34.3954     5842.56
34.4246     5796.46
34.4538     5740.07
34.4829     5868.85
34.5121     5886.76
34.5412     5837.50
34.5704     5875.45
34.5996     5876.85
34.6287     5911.38
34.6579     5924.51
34.6870     5902.71
34.7162     5924.24
34.7454     5902.42
34.7745     5941.06
34.8037     5983.95
34.8328     6028.33
34.8620     5895.07
34.8912     5803.99
34.9203     5946.37
34.9495     5944.65
34.9786     5970.42
35.0078     5913.75
35.0370     5893.15
35.0661     5859.18
35.0953     5935.24
35.1244     5968.20
35.1536     5985.24
35.1828     5852.89
35.2119     5832.85
35.2411     5840.61
35.2702     5919.40
35.2994     5923.59
35.3286     5883.50
35.3577     5873.36
35.3869     5887.17
35.4160     5878.45
35.4452     6003.82
35.4744     6051.66
35.5035     6014.36
35.5327     6088.38
35.5618     5943.97
35.5910     5801.84
35.6202     5832.50
35.6493     5913.29
35.6785     5860.48
35.7076     5817.26
35.7368     5777.65
35.7660     5839.85
35.7951     5802.66
35.8243     5856.03
35.8534     5766.18
35.8826     5807.12
35.9118     5853.30
35.9409     5743.38
35.9701     5832.62
35.9992     5743.90
36.0284     5789.91
36.0576     5721.78
36.0867     5712.92
36.1159     5778.49
36.1450     5858.86
36.1742     5821.36
36.2034     5717.80
36.2325     5755.98
36.2617     5734.74
36.2908     5795.45
36.3200     5749.41
36.3492     5835.85
36.3783     5666.55
36.4075     5851.35
36.4366     5890.01
36.4658     5605.27
36.4950     5788.95
36.5241     5745.07
36.5533     5687.90
36.5824     5654.48
36.6116     5803.34
36.6408     5796.92
36.6699     5763.54
36.6991     5726.33
36.7282     5607.58
36.7574     5586.31
36.7866     5601.94
36.8157     5829.70
36.8449     5675.24
36.8740     5713.23
36.9032     5880.39
36.9324     5742.70
36.9615     5695.41
36.9907     5685.29
37.0198     5626.48
37.0490     5714.51
37.0782     5670.70
37.1073     5596.99
37.1365     5689.43
37.1656     5805.17
37.1948     5776.14
37.2240     5736.33
37.2531     5732.66
37.2823     5727.48
37.3114     5732.90
37.3406     5778.69
37.3698     5726.94
37.3989     5682.64
37.4281     5713.33
37.4572     5690.30
37.4864     5648.96
37.5156     5680.94
37.5447     5794.32
37.5739     5827.20
37.6030     5816.75
37.6322     5799.55
37.6614     5736.24
37.6905     5676.03
37.7197     5663.36
37.7488     5690.02
37.7780     5722.05
37.8072     5790.16
37.8363     5801.84
37.8655     5875.64
37.8946     5816.40
37.9238     5704.65
37.9530     5711.76
37.9821     5714.92
38.0113     5763.07
38.0404     5796.78
38.0696     5738.96
38.0988     5645.55
38.1279     5680.38
38.1571     5761.62
38.1862     5792.81
38.2154     5837.43
38.2446     5830.02
38.2737     5773.58
38.3029     5759.08
38.3320     5808.78
38.3612     5775.72
38.3904     5755.32
38.4195     5793.21
38.4487     5751.90
38.4778     5775.29
38.5070     5791.25
38.5362     5779.41
38.5653     5719.25
38.5945     5660.06
38.6236     5698.53
38.6528     5716.58
38.6820     5776.91
38.7111     5751.55
38.7403     5680.61
38.7694     5666.42
38.7986     5746.95
38.8278     5745.36
38.8569     5747.52
38.8861     5755.51
38.9152     5715.48
38.9444     5809.72
38.9736     5806.57
39.0027     5796.11
39.0319     5749.58
39.0610     5704.94
39.0902     5876.38
39.1194     5805.50
39.1485     5846.25
39.1777     5772.86
39.2068     5697.04
39.2360     5666.27
39.2652     5653.36
39.2943     5700.24
39.3235     5709.31
39.3526     5788.05
39.3818     5774.29
39.4110     5762.69
39.4401     5722.55
39.4693     5837.18
39.4984     5784.64
39.5276     5796.53
39.5568     5842.56
39.5859     5629.49
39.6151     5677.07
39.6442     5909.72
39.6734     5759.69
39.7026     5886.70
39.7317     5843.45
39.7609     5748.34
39.7900     5851.40
39.8192     5700.17
39.8484     5728.24
39.8775     5784.23
39.9067     5746.57
39.9358     5881.40
39.9650     5749.35
39.9942     5713.88
40.0233     5721.94
40.0525     5772.81
40.0816     5760.05
40.1108     5663.13
40.1400     5677.94
40.1691     5767.54
40.1983     5796.69
40.2274     5706.33
40.2566     5710.55
40.2858     5802.26
40.3149     5854.89
40.3441     5898.91
40.3732     5860.43
40.4024     5832.13
40.4316     5765.61
40.4607     5771.93
40.4899     5817.56
40.5190     5831.06
40.5482     5737.34
40.5774     5655.47
40.6065     5724.74
40.6357     5746.83
40.6648     5744.23
40.6940     5812.24
40.7232     5785.28
40.7523     5767.75
40.7815     5786.33
40.8106     5690.84
40.8398     5731.03
40.8690     5845.43
40.8981     5803.46
40.9273     5806.15
40.9564     5795.02
40.9856     5860.85
41.0148     5900.62
41.0439     5968.15
41.0731     5940.34
41.1022     5815.01
41.1314     5849.35
41.1606     5747.39
41.1897     5777.66
41.2189     5878.33
41.2480     5901.49
41.2772     5795.39
41.3064     5784.05
41.3355     5773.62
41.3647     5750.41
41.3938     5828.12
41.4230     5948.55
41.4522     5732.35
41.4813     5671.02
41.5105     5794.16
41.5396     5812.87
41.5688     5778.77
41.5980     5748.14
41.6271     5624.69
41.6563     5674.93
41.6854     5806.69
41.7146     5870.44
41.7438     5713.19
41.7729     5748.15
41.8021     5656.95
41.8312     5642.69
41.8604     5743.03
41.8896     5710.52
41.9187     5740.13
41.9479     5838.84
41.9770     5837.04
42.0062     5764.79
42.0354     5749.53
42.0645     5797.74
42.0937     5732.30
42.1228     5851.20
42.1520     5834.52
42.1812     5703.11
42.2103     5635.81
42.2395     5661.23
42.2686     5704.07
42.2978     5694.94
42.3270     5672.15
42.3561     5706.82
42.3853     5714.94
42.4144     5670.95
42.4436     5736.96
42.4728     5734.74
42.5019     5692.58
42.5311     5673.58
42.5602     5745.64
42.5894     5897.26
42.6186     5892.88
42.6477     5838.39
42.6769     5870.10
42.7060     5803.31
42.7352     5684.26
42.7644     5640.29
42.7935     5679.46
42.8227     5725.50
42.8518     5769.89
42.8810     5796.00
42.9102     5777.87
42.9393     5774.34
42.9685     5874.26
42.9976     5953.96
43.0268     5938.46
43.0560     5904.64
43.0851     5819.61
43.1143     5927.25
43.1434     6039.29
43.1726     6046.93
43.2018     6018.69
43.2309     5997.37
43.2601     6113.19
43.2892     6103.12
43.3184     6120.54
43.3476     6238.28
43.3767     6374.86
43.4059     6467.22
43.4350     6432.32
43.4642     6393.95
43.4934     6431.93
43.5225     6667.21
43.5517     6749.44
43.5808     6701.52
43.6100     6715.46
43.6392     6745.13
43.6683     6766.90
43.6975     6871.71
43.7266     7009.37
43.7558     7105.79
43.7850     7140.78
43.8141     7094.66
43.8433     7044.93
43.8724     7097.69
43.9016     7057.71
43.9308     7155.43
43.9599     7303.40
43.9891     7347.44
44.0182     7468.64
44.0474     7405.25
44.0766     7459.89
44.1057     7649.34
44.1349     7657.62
44.1640     7663.39
44.1932     7519.48
44.2224     7439.13
44.2515     7415.74
44.2807     7551.00
44.3098     7574.95
44.3390     7455.38
44.3682     7424.33
44.3973     7348.46
44.4265     7375.41
44.4556     7267.30
44.4848     7218.99
44.5140     7034.08
44.5431     6936.74
44.5723     6950.91
44.6014     6855.30
44.6306     6829.81
44.6598     6784.21
44.6889     6812.11
44.7181     6610.23
44.7472     6555.56
44.7764     6639.86
44.8056     6554.80
44.8347     6312.89
44.8639     6316.72
44.8930     6232.81
44.9222     6161.16
44.9514     6176.13
44.9805     6143.67
45.0097     6096.04
45.0388     6157.28
45.0680     6030.34
45.0972     5886.47
45.1263     5823.80
45.1555     5870.85
45.1846     6027.50
45.2138     5817.92
45.2430     5937.70
45.2721     5880.37
45.3013     5981.20
45.3304     5895.10
45.3596     5768.14
45.3888     5775.07
45.4179     5773.85
45.4471     5636.40
45.4762     5774.41
45.5054     5916.66
45.5346     5783.46
45.5637     5817.20
45.5929     5799.44
45.6220     5807.71
45.6512     5783.76
45.6804     5863.51
45.7095     5849.76
45.7387     5783.11
45.7678     5871.43
45.7970     5761.44
45.8262     5723.46
45.8553     5766.64
45.8845     5848.68
45.9136     5835.19
45.9428     5755.79
45.9720     5865.35
46.0011     5899.94
46.0303     5879.10
46.0594     5937.23
46.0886     5822.60
46.1178     5928.44
46.1469     5994.25
46.1761     5846.50
46.2052     5948.28
46.2344     5930.19
46.2636     5786.29
46.2927     5814.92
46.3219     5858.68
46.3510     5800.99
46.3802     5881.58
46.4094     5765.35
46.4385     5914.74
46.4677     5850.72
46.4968     5836.12
46.5260     5802.47
46.5552     5878.20
46.5843     5953.38
46.6135     5938.23
46.6426     5909.83
46.6718     5818.82
46.7010     5817.93
46.7301     5811.33
46.7593     5904.75
46.7884     5837.96
46.8176     5733.76
46.8468     5850.27
46.8759     5866.47
46.9051     5848.98
46.9342     5884.32
46.9634     5789.60
46.9926     5871.30
47.0217     5916.44
47.0509     5804.09
47.0800     5848.60
47.1092     5930.39
47.1384     5783.92
47.1675     5667.21
47.1967     5811.02
47.2258     5811.98
47.2550     6014.02
47.2842     5785.23
47.3133     5787.43
47.3425     5837.31
47.3716     5831.24
47.4008     5858.99
47.4300     5857.88
47.4591     5914.37
47.4883     6043.39
47.5174     6014.57
47.5466     5951.65
47.5758     5950.98
47.6049     5906.45
47.6341     5895.00
47.6632     5921.56
47.6924     5909.09
47.7216     5908.13
47.7507     5890.76
47.7799     5915.13
47.8090     5818.69
47.8382     5849.68
47.8674     5809.59
47.8965     5960.48
47.9257     5996.88
47.9548     5935.29
47.9840     5895.74
48.0132     5990.56
48.0423     5961.50
48.0715     5924.45
48.1006     5907.84
48.1298     5931.67
48.1590     5941.51
48.1881     5967.27
48.2173     6010.38
48.2464     5935.95
48.2756     5882.09
48.3048     5953.77
48.3339     5896.33
48.3631     5884.54
48.3922     5977.99
48.4214     5960.03
48.4506     5854.09
48.4797     5739.34
48.5089     5847.67
48.5380     5966.91
48.5672     6048.49
48.5964     5865.09
48.6255     5930.63
48.6547     5842.93
48.6838     6002.26
48.7130     5845.23
48.7422     6132.84
48.7713     6164.77
48.8005     6032.33
48.8296     5934.84
48.8588     5921.00
48.8880     5858.46
48.9171     5969.74
48.9463     6109.68
48.9754     6030.51
49.0046     6080.46
49.0338     6042.97
49.0629     6001.10
49.0921     6018.33
49.1212     6127.40
49.1504     6146.75
49.1796     6136.31
49.2087     6079.07
49.2379     6062.05
49.2670     6058.38
49.2962     6217.46
49.3254     6176.77
49.3545     6187.09
49.3837     6225.51
49.4128     6176.53
49.4420     6095.57
49.4712     6221.44
49.5003     6124.00
49.5295     6173.44
49.5586     6216.81
49.5878     6276.60
49.6170     6408.06
49.6461     6340.00
49.6753     6232.86
49.7044     6290.45
49.7336     6286.15
49.7628     6256.72
49.7919     6240.41
49.8211     6232.10
49.8502     6194.86
49.8794     6202.73
49.9086     6265.63
49.9377     6390.02
49.9669     6530.95
49.9960     6504.79
50.0252     6387.16
50.0544     6398.11
50.0835     6303.31
50.1127     6210.69
50.1418     6299.27
50.1710     6212.65
50.2002     6225.34
50.2293     6375.52
50.2585     6350.64
50.2876     6300.55
50.3168     6350.75
50.3460     6348.58
50.3751     6373.23
50.4043     6224.46
50.4334     6184.74
50.4626     6283.81
50.4918     6262.58
50.5209     6250.58
50.5501     6334.67
50.5792     6311.36
50.6084     6386.69
50.6376     6304.64
50.6667     6196.89
50.6959     6165.70
50.7250     6197.22
50.7542     6202.49
50.7834     6111.21
50.8125     6159.97
50.8417     6248.31
50.8708     6223.86
50.9000     6158.68
50.9292     6146.84
50.9583     6161.46
50.9875     6142.42
51.0166     6098.89
51.0458     6014.23
51.0750     5939.68
51.1041     6044.62
51.1333     6142.05
51.1624     6088.38
51.1916     5970.50
51.2208     6015.45
51.2499     6059.76
51.2791     6074.94
51.3082     5990.21
51.3374     6030.44
51.3666     6089.32
51.3957     5968.30
51.4249     5863.47
51.4540     5958.29
51.4832     5960.14
51.5124     6000.33
51.5415     5958.24
51.5707     5964.11
51.5998     5981.17
51.6290     5875.55
51.6582     5843.41
51.6873     5855.24
51.7165     5904.28
51.7456     6012.41
51.7748     5925.60
51.8040     5839.11
51.8331     5926.34
51.8623     5913.72
51.8914     5919.87
51.9206     6009.09
51.9498     5950.87
51.9789     5914.42
52.0081     5878.31
52.0372     5888.61
52.0664     5926.75
52.0956     5850.42
52.1247     5902.42
52.1539     5905.94
52.1830     5952.62
52.2122     5888.16
52.2414     5778.06
52.2705     5784.20
52.2997     5688.95
52.3288     5679.92
52.3580     5855.65
52.3872     5943.61
52.4163     5910.52
52.4455     5959.25
52.4746     5977.63
52.5038     5908.04
52.5330     5795.83
52.5621     5788.01
52.5913     5804.26
52.6204     5790.21
52.6496     5832.96
52.6788     5918.12
52.7079     5891.62
52.7371     5944.09
52.7662     5970.01
52.7954     5943.03
52.8246     5827.48
52.8537     5739.96
52.8829     5671.43
52.9120     5770.41
52.9412     5910.42
52.9704     6070.71
52.9995     5963.66
53.0287     5912.59
53.0578     6094.53
53.0870     6179.31
53.1162     6027.73
53.1453     6021.21
53.1745     5915.61
53.2036     5880.50
53.2328     5858.24
53.2620     5993.29
53.2911     5971.85
53.3203     5880.84
53.3494     5946.27
53.3786     5928.54
53.4078     6011.66
53.4369     5872.62
53.4661     5894.08
53.4952     5958.27
53.5244     5789.70
53.5536     5824.90
53.5827     5998.58
53.6119     6045.88
53.6410     5994.77
53.6702     5957.79
53.6994     5979.08
53.7285     5801.63
53.7577     5759.16
53.7868     5792.25
53.8160     5815.65
53.8452     5740.11
53.8743     5870.41
53.9035     6026.48
53.9326     5793.45
53.9618     5969.61
53.9910     5806.02
54.0201     5812.78
54.0493     5870.88
54.0784     5941.29
54.1076     5810.23
54.1368     5792.10
54.1659     5765.08
54.1951     5847.59
54.2242     5964.45
54.2534     5858.33
54.2826     5997.08
54.3117     5865.35
54.3409     5828.86
54.3700     5892.81
54.3992     5986.85
54.4284     5919.93
54.4575     5840.66
54.4867     5963.96
54.5158     5997.61
54.5450     5903.83
54.5742     5846.01
54.6033     6001.62
54.6325     5936.29
54.6616     5870.88
54.6908     5867.39
54.7200     5867.76
54.7491     5706.57
54.7783     5801.52
54.8074     5863.41
54.8366     5892.10
54.8658     5881.91
54.8949     6055.79
54.9241     5882.12
54.9532     5867.59
54.9824     5865.68
55.0116     5874.18
55.0407     5817.76
55.0699     5806.49
55.0990     5955.05
55.1282     5962.12
55.1574     5852.22
55.1865     5944.14
55.2157     5963.26
55.2448     6019.61
55.2740     5904.19
55.3032     5979.26
55.3323     5905.90
55.3615     5745.39
55.3906     5913.30
55.4198     5948.05
55.4490     5820.20
55.4781     5832.38
55.5073     5969.00
55.5364     6053.07
55.5656     6009.72
55.5948     5970.13
55.6239     5786.89
55.6531     5746.92
55.6822     5755.92
55.7114     6012.35
55.7406     5957.94
55.7697     5860.20
55.7989     5795.59
55.8280     5782.56
55.8572     5953.46
55.8864     5873.20
55.9155     6013.86
55.9447     5842.27
55.9738     5700.34
56.0030     5658.04
56.0322     5900.33
56.0613     5901.98
56.0905     5781.45
56.1196     5852.70
56.1488     5761.21
56.1780     5960.26
56.2071     6004.19
56.2363     5833.65
56.2654     5890.77
56.2946     5839.90
56.3238     5856.87
56.3529     5978.38
56.3821     5877.84
56.4112     5887.94
56.4404     5876.43
56.4696     5807.06
56.4987     5847.55
56.5279     5827.72
56.5570     5775.53
56.5862     5755.04
56.6154     5766.74
56.6445     5877.71
56.6737     5952.78
56.7028     5945.35
56.7320     5957.46
56.7612     5957.04
56.7903     6068.66
56.8195     6015.40
56.8486     5828.31
56.8778     5803.73
56.9070     5851.41
56.9361     5937.71
56.9653     6046.81
56.9944     6004.07
57.0236     5860.92
57.0528     5857.04
57.0819     5936.64
57.1111     6044.99
57.1402     5751.78
57.1694     5757.13
57.1986     5725.17
57.2277     5610.81
57.2569     5687.14
57.2860     5926.84
57.3152     5898.67
57.3444     5865.11
57.3735     5891.09
57.4027     5882.09
57.4318     5829.45
57.4610     5784.99
57.4902     5827.49
57.5193     5859.12
57.5485     5847.58
57.5776     5864.44
57.6068     5902.67
57.6360     5886.90
57.6651     5874.08
57.6943     5880.40
57.7234     5851.26
57.7526     5918.99
57.7818     5915.74
57.8109     5777.89
57.8401     5744.56
57.8692     5718.10
57.8984     5816.32
57.9276     5914.75
57.9567     5860.14
57.9859     5738.17
58.0150     5854.44
58.0442     5830.26
58.0734     5969.74
58.1025     5906.30
58.1317     5873.97
58.1608     5789.80
58.1900     5841.69
58.2192     6024.97
58.2483     5951.99
58.2775     5905.99
58.3066     5911.08
58.3358     5976.17
58.3650     6018.63
58.3941     5993.67
58.4233     5978.16
58.4524     5966.03
58.4816     5879.42
58.5108     5924.93
58.5399     6042.34
58.5691     6131.84
58.5982     6138.64
58.6274     6188.01
58.6566     6050.32
58.6857     6006.81
58.7149     5994.05
58.7440     6077.65
58.7732     6028.84
58.8024     6063.74
58.8315     6084.30
58.8607     6024.64
58.8898     6046.67
58.9190     6084.34
58.9482     6119.73
58.9773     6203.31
59.0065     6104.31
59.0356     6114.26
59.0648     6051.90
59.0940     5896.84
59.1231     5998.51
59.1523     6177.36
59.1814     6123.15
59.2106     6177.22
59.2398     6216.86
59.2689     6108.52
59.2981     6067.69
59.3272     6109.73
59.3564     6126.64
59.3856     6103.01
59.4147     6115.06
59.4439     6195.97
59.4730     6231.96
59.5022     6229.57
59.5314     6167.39
59.5605     6059.77
59.5897     6113.28
59.6188     6147.25
59.6480     6044.38
59.6772     5882.35
59.7063     5797.74
59.7355     5855.42
59.7646     5899.01
59.7938     5982.16
59.8230     6137.67
59.8521     6181.46
59.8813     6199.62
59.9104     6331.42
59.9396     6240.27
59.9688     6123.14
59.9979     6108.32
60.0271     6116.77
60.0562     6075.84
60.0854     6134.73
60.1146     6130.99
60.1437     6044.86
60.1729     5987.04
60.2020     6110.30
60.2312     6137.06
60.2604     6187.67
60.2895     6121.50
60.3187     5923.48
60.3478     5927.34
60.3770     6019.69
60.4062     6080.89
60.4353     6110.24
60.4645     6085.39
60.4936     5967.65
60.5228     6017.58
60.5520     6014.02
60.5811     6064.48
60.6103     5974.89
60.6394     5898.53
60.6686     6078.88
60.6978     6117.22
60.7269     5960.71
60.7561     6010.92
60.7852     6132.77
60.8144     5935.13
60.8436     5985.37
60.8727     6022.12
60.9019     5974.76
60.9310     5870.98
60.9602     5830.19
60.9894     5936.06
61.0185     6013.07
61.0477     5945.24
61.0768     6010.05
61.1060     5921.79
61.1352     5889.73
61.1643     5852.11
61.1935     5760.65
61.2226     5900.94
61.2518     5751.61
61.2810     5969.42
61.3101     5971.20
61.3393     6118.16
61.3684     6090.30
61.3976     6090.04
61.4268     6010.40
61.4559     6016.77
61.4851     6050.26
61.5142     5839.80
61.5434     5787.39
61.5726     5857.89
61.6017     5955.31
61.6309     5941.91
61.6600     5879.07
61.6892     5858.65
61.7184     5931.83
61.7475     6007.72
61.7767     6027.62
61.8058     5936.21
61.8350     5911.56
61.8642     5782.42
61.8933     6009.28
61.9225     5982.08
61.9516     5877.47
61.9808     5832.00
62.0100     5787.28
62.0391     6019.84
62.0683     5917.40
62.0974     5857.70
62.1266     5877.67
62.1558     5740.77
62.1849     5662.08
62.2141     5856.56
62.2432     5848.41
62.2724     5848.99
62.3016     6011.72
62.3307     5983.09
62.3599     5887.73
62.3890     5907.46
62.4182     5976.34
62.4474     5919.64
62.4765     5909.10
62.5057     5757.62
62.5348     5796.33
62.5640     5746.40
62.5932     5660.15
62.6223     5827.40
62.6515     5883.97
62.6806     5982.54
62.7098     5903.36
62.7390     5791.27
62.7681     5792.33
62.7973     5927.46
62.8264     5899.12
62.8556     5842.68
62.8848     5899.95
62.9139     5958.00
62.9431     5874.31
62.9722     5905.20
63.0014     5910.49
63.0306     5813.80
63.0597     5959.25
63.0889     6002.53
63.1180     5858.74
63.1472     5665.19
63.1764     5775.98
63.2055     5841.31
63.2347     5975.75
63.2638     5884.99
63.2930     5911.53
63.3222     5893.40
63.3513     5731.86
63.3805     5784.79
63.4096     5872.32
63.4388     5907.87
63.4680     5806.72
63.4971     5797.54
63.5263     5841.04
63.5554     5791.05
63.5846     5876.30
63.6138     5880.68
63.6429     5983.97
63.6721     5864.24
63.7012     5751.57
63.7304     5739.13
63.7596     5911.78
63.7887     5951.30
63.8179     5956.71
63.8470     5859.71
63.8762     5826.56
63.9054     5839.35
63.9345     5813.23
63.9637     5798.60
63.9928     5936.89
64.0220     5953.48
64.0512     5960.61
64.0803     5985.84
64.1095     5955.53
64.1386     5919.46
64.1678     5903.61
64.1970     5990.66
64.2261     5906.15
64.2553     5867.05
64.2844     5910.21
64.3136     5871.57
64.3428     5832.16
64.3719     5854.21
64.4011     5870.00
64.4302     5897.75
64.4594     5917.17
64.4886     5969.23
64.5177     5948.28
64.5469     5783.83
64.5760     5777.76
64.6052     6036.12
64.6344     5825.16
64.6635     5767.33
64.6927     5958.79
64.7218     5928.15
64.7510     5989.75
64.7802     5917.78
64.8093     5904.87
64.8385     5878.60
64.8676     5935.61
64.8968     6009.58
64.9260     5981.31
64.9551     5848.99
64.9843     5747.43
65.0134     5687.50
65.0426     5639.67
65.0718     5827.49
65.1009     5914.72
65.1301     5831.84
65.1592     5737.59
65.1884     5751.00
65.2176     5808.27
65.2467     5799.41
65.2759     5841.71
65.3050     5902.19
65.3342     5859.83
65.3634     5864.52
65.3925     5833.72
65.4217     5762.02
65.4508     5740.91
65.4800     5770.47
65.5092     5823.27
65.5383     5804.85
65.5675     5736.72
65.5966     5723.46
65.6258     5781.47
65.6550     5748.79
65.6841     5683.30
65.7133     5728.21
65.7424     5700.69
65.7716     5789.87
65.8008     5801.24
65.8299     5810.83
65.8591     5778.91
65.8882     5692.30
65.9174     5692.92
65.9466     5632.77
65.9757     5640.00
66.0049     5541.53
66.0340     5661.94
66.0632     5800.47
66.0924     5879.71
66.1215     5923.49
66.1507     5710.57
66.1798     5843.93
66.2090     5727.19
66.2382     5667.49
66.2673     5808.72
66.2965     5803.02
66.3256     5797.58
66.3548     5829.22
66.3840     5798.02
66.4131     5783.70
66.4423     5834.38
66.4714     5772.42
66.5006     5713.01
66.5298     5699.04
66.5589     5730.76
66.5881     5769.80
66.6172     5750.79
66.6464     5762.88
66.6756     5725.41
66.7047     5642.91
66.7339     5715.12
66.7630     5746.93
66.7922     5819.89
66.8214     5981.00
66.8505     5934.02
66.8797     5764.85
66.9088     5719.43
66.9380     5720.51
66.9672     5848.25
66.9963     5813.82
67.0255     5823.37
67.0546     5737.34
67.0838     5798.61
67.1130     5779.63
67.1421     5888.18
67.1713     5788.05
67.2004     5769.17
67.2296     5774.57
67.2588     5821.69
67.2879     5875.31
67.3171     5862.92
67.3462     5905.19
67.3754     5815.07
67.4046     5757.47
67.4337     5745.83
67.4629     5759.51
67.4920     5730.21
67.5212     5699.71
67.5504     5809.63
67.5795     5881.09
67.6087     5833.70
67.6378     5886.67
67.6670     5953.45
67.6962     5886.05
67.7253     5852.01
67.7545     5814.66
67.7836     5815.06
67.8128     5954.47
67.8420     5881.74
67.8711     5883.82
67.9003     5717.80
67.9294     5908.68
67.9586     5743.00
67.9878     5861.00
68.0169     5823.16
68.0461     5889.77
68.0752     5884.48
68.1044     5860.56
68.1336     5750.30
68.1627     5730.65
68.1919     5732.26
68.2210     5721.39
68.2502     5752.29
68.2794     5812.58
68.3085     5791.81
68.3377     5753.70
68.3668     5803.31
68.3960     5903.75
68.4252     5902.67
68.4543     5785.79
68.4835     5766.47
68.5126     5892.36
68.5418     5880.13
68.5710     5793.34
68.6001     5843.48
68.6293     5840.17
68.6584     5871.00
68.6876     5756.95
68.7168     5730.72
68.7459     5796.73
68.7751     5839.10
68.8042     5805.72
68.8334     5802.98
68.8626     5641.87
68.8917     5605.16
68.9209     5793.86
68.9500     5802.40
68.9792     5813.72
69.0084     5709.96
69.0375     5640.90
69.0667     5640.68
69.0958     5689.76
69.1250     5784.16
69.1542     5841.30
69.1833     5655.06
69.2125     5645.20
69.2416     5791.77
69.2708     5601.88
69.3000     5704.26
69.3291     5648.36
69.3583     5682.55
69.3874     5770.79
69.4166     5599.26
69.4458     5617.82
69.4749     5604.08
69.5041     5591.55
69.5332     5624.97
69.5624     5645.40
69.5916     5602.50
69.6207     5706.37
69.6499     5581.82
69.6790     5620.46
69.7082     5581.63
69.7374     5600.06
69.7665     5714.77
69.7957     5704.59
69.8248     5694.67
69.8540     5688.15
69.8832     5564.60
69.9123     5626.91
69.9415     5579.49
69.9706     5585.89
69.9998     5577.85
70.0290     5664.99
70.0581     5789.60
70.0873     5842.00
70.1164     5637.94
70.1456     5594.01
70.1748     5760.75
70.2039     5659.63
70.2331     5697.69
70.2622     5828.41
70.2914     5760.07
70.3206     5699.99
70.3497     5698.92
70.3789     5673.84
70.4080     5676.91
70.4372     5705.63
70.4664     5721.95
70.4955     5630.08
70.5247     5643.28
70.5538     5662.89
70.5830     5734.77
70.6122     5667.94
70.6413     5611.33
70.6705     5830.55
70.6996     5648.52
70.7288     5665.89
70.7580     5613.76
70.7871     5626.23
70.8163     5770.97
70.8454     5615.99
70.8746     5741.86
70.9038     5694.96
70.9329     5697.47
70.9621     5786.55
70.9912     5732.67
71.0204     5730.21
71.0496     5804.40
71.0787     5860.32
71.1079     5773.13
71.1370     5836.33
71.1662     5780.66
71.1954     5636.51
71.2245     5593.07
71.2537     5686.74
71.2828     5699.87
71.3120     5759.53
71.3412     5743.45
71.3703     5594.37
71.3995     5718.86
71.4286     5693.54
71.4578     5819.72
71.4870     5738.43
71.5161     5873.67
71.5453     5680.61
71.5744     5696.22
71.6036     5647.69
71.6328     5883.91
71.6619     5856.95
71.6911     5772.75
71.7202     5749.84
71.7494     5767.97
71.7786     5831.42
71.8077     5857.00
71.8369     5744.23
71.8660     5646.28
71.8952     5689.48
71.9244     5714.59
71.9535     5657.07
71.9827     5744.05
72.0118     5767.79
72.0410     5725.29
72.0702     5613.24
72.0993     5633.76
72.1285     5660.61
72.1576     5688.93
72.1868     5744.22
72.2160     5765.89
72.2451     5784.31
72.2743     5796.36
72.3034     5732.68
72.3326     5735.43
72.3618     5813.24
72.3909     5757.29
72.4201     5694.17
72.4492     5761.84
72.4784     5783.34
72.5076     5696.52
72.5367     5685.56
72.5659     5758.58
72.5950     5723.86
72.6242     5744.52
72.6534     5842.31
72.6825     5735.95
72.7117     5749.20
72.7408     5727.18
72.7700     5809.49
72.7992     5757.84
72.8283     5692.29
72.8575     5771.64
72.8866     5653.65
72.9158     5825.30
72.9450     5810.83
72.9741     5719.78
73.0033     5710.90
73.0324     5690.30
73.0616     5841.76
73.0908     5757.92
73.1199     5861.67
73.1491     5754.42
73.1782     5758.16
73.2074     5842.95
73.2366     5786.61
73.2657     5769.14
73.2949     5741.80
73.3240     5669.50
73.3532     5731.36
73.3824     5768.32
73.4115     5901.83
73.4407     5811.04
73.4698     5870.71
73.4990     5728.17
73.5282     5638.45
73.5573     5643.32
73.5865     5659.70
73.6156     5701.52
73.6448     5737.47
73.6740     5695.70
73.7031     5754.38
73.7323     5692.81
73.7614     5635.34
73.7906     5636.77
73.8198     5638.41
73.8489     5742.69
73.8781     5743.51
73.9072     5659.18
73.9364     5692.45
73.9656     5650.33
73.9947     5591.37
74.0239     5674.77
74.0530     5797.41
74.0822     5859.48
74.1114     5810.24
74.1405     5805.33
74.1697     5738.59
74.1988     5659.94
74.2280     5651.11
74.2572     5690.95
74.2863     5546.25
74.3155     5669.02
74.3446     5707.67
74.3738     5780.54
74.4030     5759.15
74.4321     5722.85
74.4613     5781.69
74.4904     5600.35
74.5196     5572.24
74.5488     5551.14
74.5779     5587.70
74.6071     5735.96
74.6362     5774.93
74.6654     5724.25
74.6946     5765.27
74.7237     5747.62
74.7529     5669.42
74.7820     5722.47
74.8112     5705.86
74.8404     5830.78
74.8695     5776.94
74.8987     5793.00
74.9278     5768.28
74.9570     5671.63
74.9862     5607.95
75.0153     5558.23
75.0445     5561.53
75.0736     5644.29
75.1028     5635.13
75.1320     5616.34
75.1611     5663.61
75.1903     5802.11
75.2194     5842.28
75.2486     5722.61
75.2778     5651.73
75.3069     5635.88
75.3361     5618.26
75.3652     5613.23
75.3944     5623.36
75.4236     5679.51
75.4527     5631.43
75.4819     5671.60
75.5110     5780.76
75.5402     5788.04
75.5694     5834.49
75.5985     5631.04
75.6277     5664.45
75.6568     5626.92
75.6860     5643.26
75.7152     5650.79
75.7443     5578.55
75.7735     5524.71
75.8026     5569.11
75.8318     5693.75
75.8610     5683.55
75.8901     5684.93
75.9193     5567.00
75.9484     5547.74
75.9776     5560.83
76.0068     5588.21
76.0359     5625.36
76.0651     5690.09
76.0942     5711.71
76.1234     5657.98
76.1526     5617.96
76.1817     5531.12
76.2109     5527.03
76.2400     5610.34
76.2692     5570.96
76.2984     5525.18
76.3275     5604.32
76.3567     5636.37
76.3858     5686.52
76.4150     5738.25
76.4442     5614.11
76.4733     5649.99
76.5025     5667.26
76.5316     5617.29
76.5608     5639.79
76.5900     5639.26
76.6191     5510.13
76.6483     5529.14
76.6774     5485.83
76.7066     5538.49
76.7358     5609.44
76.7649     5644.30
76.7941     5608.88
76.8232     5531.55
76.8524     5530.55
76.8816     5624.22
76.9107     5500.84
76.9399     5537.66
76.9690     5619.22
76.9982     5671.59
77.0274     5697.79
77.0565     5663.36
77.0857     5707.33
77.1148     5726.62
77.1440     5665.76
77.1732     5672.17
77.2023     5745.87
77.2315     5675.12
77.2606     5646.00
77.2898     5614.81
77.3190     5680.64
77.3481     5778.34
77.3773     5727.58
77.4064     5713.50
77.4356     5722.39
77.4648     5601.68
77.4939     5711.25
77.5231     5716.71
77.5522     5587.38
77.5814     5686.53
77.6106     5645.64
77.6397     5664.67
77.6689     5713.73
77.6980     5728.68
77.7272     5646.98
77.7564     5603.23
77.7855     5637.72
77.8147     5680.65
77.8438     5691.87
77.8730     5652.78
77.9022     5595.69
77.9313     5584.47
77.9605     5574.12
77.9896     5595.84
78.0188     5676.98
78.0480     5606.82
78.0771     5644.85
78.1063     5603.59
78.1354     5772.14
78.1646     5773.12
78.1938     5665.60
78.2229     5635.78
78.2521     5597.99
78.2812     5578.58
78.3104     5614.40
78.3396     5489.29
78.3687     5576.06
78.3979     5605.38
78.4270     5607.14
78.4562     5685.15
78.4854     5605.50
78.5145     5505.34
78.5437     5462.09
78.5728     5500.36
78.6020     5604.76
78.6312     5654.37
78.6603     5558.17
78.6895     5493.93
78.7186     5440.56
78.7478     5549.70
78.7770     5638.47
78.8061     5600.89
78.8353     5522.92
78.8644     5469.01
78.8936     5494.25
78.9228     5513.35
78.9519     5441.76
78.9811     5431.31
79.0102     5542.86
79.0394     5553.20
79.0686     5572.49
79.0977     5680.47
79.1269     5662.42
79.1560     5559.21
79.1852     5493.01
79.2144     5384.30
79.2435     5338.06
79.2727     5385.05
79.3018     5464.63
79.3310     5585.29
79.3602     5647.96
79.3893     5635.65
79.4185     5486.91
79.4476     5487.51
79.4768     5491.04
79.5060     5558.55
79.5351     5555.81
79.5643     5579.94
79.5934     5464.99
79.6226     5387.08
79.6518     5422.73
79.6809     5499.55
79.7101     5558.97
79.7392     5481.45
79.7684     5498.64
79.7976     5535.01
79.8267     5498.79
79.8559     5590.31
79.8850     5626.11
79.9142     5522.95
79.9434     5439.49
79.9725     5492.57
80.0017     5644.39
80.0308     5703.50
80.0600     5672.75
80.0892     5535.56
80.1183     5605.78
80.1475     5606.68
80.1766     5601.13
80.2058     5682.24
80.2350     5620.71
80.2641     5577.10
80.2933     5644.05
80.3224     5645.82
80.3516     5720.34
80.3808     5853.37
80.4099     5894.01
80.4391     5873.09
80.4682     5888.00
80.4974     5868.07
80.5266     5826.06
80.5557     5723.92
80.5849     5839.29
80.6140     5827.55
80.6432     5817.71
80.6724     5943.35
80.7015     5999.41
80.7307     6009.20
80.7598     5973.72
80.7890     5847.40
80.8182     5839.09
80.8473     5885.52
80.8765     5961.83
80.9056     6109.20
80.9348     6158.54
80.9640     6195.56
80.9931     6247.05
81.0223     6296.11
81.0514     6245.31
81.0806     6196.84
81.1098     6226.01
81.1389     6163.70
81.1681     6134.18
81.1972     6337.26
81.2264     6323.82
81.2556     6278.24
81.2847     6335.68
81.3139     6224.05
81.3430     6224.17
81.3722     6279.71
81.4014     6258.57
81.4305     6358.27
81.4597     6460.38
81.4888     6435.19
81.5180     6363.84
81.5472     6290.98
81.5763     6306.89
81.6055     6302.20
81.6346     6191.86
81.6638     6174.32
81.6930     6149.88
81.7221     6232.84
81.7513     6132.78
81.7804     6141.89
81.8096     6089.53
81.8388     6057.30
81.8679     5986.38
81.8971     6026.52
81.9262     6078.86
81.9554     6220.85
81.9846     6027.05
82.0137     6025.18
82.0429     6042.65
82.0720     6034.00
82.1012     6006.94
82.1304     5865.91
82.1595     5844.21
82.1887     6070.89
82.2178     5962.54
82.2470     5893.69
82.2762     5875.04
82.3053     5893.69
82.3345     5890.25
82.3636     5905.53
82.3928     5903.24
82.4220     5938.43
82.4511     5944.30
82.4803     5858.82
82.5094     5873.13
82.5386     5683.13
82.5678     5707.43
82.5969     5627.93
82.6261     5627.05
82.6552     5634.61
82.6844     5735.00
82.7136     5656.30
82.7427     5612.54
82.7719     5604.75
82.8010     5727.77
82.8302     5630.36
82.8594     5505.57
82.8885     5589.58
82.9177     5555.64
82.9468     5635.70
82.9760     5715.93
83.0052     5713.39
83.0343     5591.66
83.0635     5604.63
83.0926     5393.54
83.1218     5374.76
83.1510     5617.54
83.1801     5621.40
83.2093     5606.90
83.2384     5663.33
83.2676     5483.00
83.2968     5433.47
83.3259     5599.87
83.3551     5458.30
83.3842     5528.94
83.4134     5466.01
83.4426     5562.77
83.4717     5640.85
83.5009     5476.71
83.5300     5409.85
83.5592     5644.93
83.5884     5623.08
83.6175     5615.19
83.6467     5473.91
83.6758     5337.25
83.7050     5472.18
83.7342     5573.00
83.7633     5712.45
83.7925     5591.54
83.8216     5631.29
83.8508     5581.87
83.8800     5454.59
83.9091     5463.65
83.9383     5459.92
83.9674     5434.09
83.9966     5437.81
84.0258     5491.27
84.0549     5537.16
84.0841     5422.74
84.1132     5477.69
84.1424     5540.37
84.1716     5549.71
84.2007     5704.04
84.2299     5682.35
84.2590     5559.73
84.2882     5608.32
84.3174     5452.61
84.3465     5402.56
84.3757     5397.99
84.4048     5480.65
84.4340     5552.22
84.4632     5623.25
84.4923     5652.12
84.5215     5557.05
84.5506     5533.36
84.5798     5537.64
84.6090     5512.90
84.6381     5492.50
84.6673     5502.58
84.6964     5573.01
84.7256     5573.27
84.7548     5592.00
84.7839     5655.73
84.8131     5540.79
84.8422     5476.68
84.8714     5602.34
84.9006     5616.87
84.9297     5559.50
84.9589     5644.21
84.9880     5723.62
85.0172     5650.03
85.0464     5545.08
85.0755     5454.50
85.1047     5514.63
85.1338     5577.21
85.1630     5607.99
85.1922     5712.50
85.2213     5631.66
85.2505     5523.65
85.2796     5516.73
85.3088     5449.27
85.3380     5419.60
85.3671     5541.18
85.3963     5575.34
85.4254     5594.98
85.4546     5621.35
85.4838     5630.04
85.5129     5568.35
85.5421     5592.02
85.5712     5615.18
85.6004     5536.53
85.6296     5627.97
85.6587     5405.41
85.6879     5721.94
85.7170     5552.06
85.7462     5588.87
85.7754     5604.77
85.8045     5458.40
85.8337     5684.39
85.8628     5614.65
85.8920     5480.19
85.9212     5529.72
85.9503     5492.45
85.9795     5612.37
86.0086     5664.87
86.0378     5757.57
86.0670     5692.47
86.0961     5580.59
86.1253     5485.84
86.1544     5363.92
86.1836     5354.59
86.2128     5444.31
86.2419     5548.80
86.2711     5541.47
86.3002     5514.22
86.3294     5499.65
86.3586     5463.00
86.3877     5416.21
86.4169     5511.59
86.4460     5584.24
86.4752     5561.03
86.5044     5539.77
86.5335     5525.62
86.5627     5567.36
86.5918     5623.74
86.6210     5502.64
86.6502     5480.12
86.6793     5555.68
86.7085     5484.23
86.7376     5451.61
86.7668     5473.13
86.7960     5477.83
86.8251     5484.04
86.8543     5543.22
86.8834     5540.79
86.9126     5474.80
86.9418     5432.89
86.9709     5460.84
87.0001     5474.97
87.0292     5488.28
87.0584     5519.64
87.0876     5473.39
87.1167     5477.65
87.1459     5602.90
87.1750     5550.82
87.2042     5442.35
87.2334     5458.23
87.2625     5392.74
87.2917     5305.08
87.3208     5335.99
87.3500     5354.00
87.3792     5431.81
87.4083     5505.54
87.4375     5433.80
87.4666     5415.04
87.4958     5436.67
87.5250     5477.91
87.5541     5611.84
87.5833     5551.84
87.6124     5473.73
87.6416     5485.38
87.6708     5466.62
87.6999     5432.23
87.7291     5416.52
87.7582     5448.14
87.7874     5333.51
87.8166     5287.40
87.8457     5495.05
87.8749     5594.33
87.9040     5494.43
87.9332     5447.94
87.9624     5352.30
87.9915     5297.86
88.0207     5316.11
88.0498     5373.75
88.0790     5384.18
88.1082     5376.22
88.1373     5395.61
88.1665     5433.55
88.1956     5551.59
88.2248     5534.17
88.2540     5459.45
88.2831     5431.31
88.3123     5433.29
88.3414     5450.25
88.3706     5492.13
88.3998     5437.51
88.4289     5432.06
88.4581     5485.81
88.4872     5336.64
88.5164     5397.29
88.5456     5463.65
88.5747     5391.55
88.6039     5313.94
88.6330     5260.99
88.6622     5255.73
88.6914     5299.87
88.7205     5429.54
88.7497     5428.85
88.7788     5472.78
88.8080     5536.88
88.8372     5492.45
88.8663     5403.28
88.8955     5251.33
88.9246     5262.78
88.9538     5341.28
88.9830     5260.41
89.0121     5261.46
89.0413     5390.56
89.0704     5466.26
89.0996     5471.83
89.1288     5415.04
89.1579     5340.84
89.1871     5329.74
89.2162     5409.20
89.2454     5403.94
89.2746     5310.48
89.3037     5401.77
89.3329     5512.16
89.3620     5543.52
89.3912     5432.65
89.4204     5332.60
89.4495     5378.25
89.4787     5325.38
89.5078     5295.81
89.5370     5375.14
89.5662     5420.38
89.5953     5425.91
89.6245     5456.64
89.6536     5512.99
89.6828     5418.96
89.7120     5373.00
89.7411     5374.27
89.7703     5429.54
89.7994     5443.45
89.8286     5285.04
89.8578     5437.26
89.8869     5428.31
89.9161     5374.05
89.9452     5427.95
89.9744     5450.89
90.0036     5320.45
90.0327     5339.06
90.0619     5388.60
90.0910     5405.31
90.1202     5354.71
90.1494     5356.26
90.1785     5326.26
90.2077     5287.85
90.2368     5320.53
90.2660     5315.32
90.2952     5387.22
90.3243     5499.30
90.3535     5375.37
90.3826     5308.28
90.4118     5273.63
90.4410     5192.35
90.4701     5322.41
90.4993     5404.16
90.5284     5490.66
90.5576     5372.88
90.5868     5259.83
90.6159     5392.57
90.6451     5323.80
90.6742     5203.73
90.7034     5570.93
90.7326     5484.80
90.7617     5336.89
90.7909     5323.43
90.8200     5356.66
90.8492     5352.86
90.8784     5440.42
90.9075     5509.75
90.9367     5230.78
90.9658     5263.64
90.9950     5344.03
91.0242     5409.61
91.0533     5310.71
91.0825     5401.97
91.1116     5451.25
91.1408     5494.21
91.1700     5504.49
91.1991     5427.87
91.2283     5354.77
91.2574     5356.25
91.2866     5432.32
91.3158     5433.28
91.3449     5476.01
91.3741     5430.16
91.4032     5448.05
91.4324     5409.46
91.4616     5367.11
91.4907     5391.43
91.5199     5358.77
91.5490     5396.62
91.5782     5401.68
91.6074     5320.66
91.6365     5421.05
91.6657     5489.25
91.6948     5521.65
91.7240     5586.30
91.7532     5427.58
91.7823     5312.14
91.8115     5359.74
91.8406     5428.99
91.8698     5423.18
91.8990     5393.10
91.9281     5469.37
91.9573     5593.58
91.9864     5605.36
92.0156     5571.84
92.0448     5503.09
92.0739     5350.17
92.1031     5315.35
92.1322     5281.97
92.1614     5341.27
92.1906     5351.34
92.2197     5290.36
92.2489     5469.65
92.2780     5549.82
92.3072     5408.69
92.3364     5357.04
92.3655     5332.66
92.3947     5296.70
92.4238     5361.90
92.4530     5228.64
92.4822     5280.82
92.5113     5390.28
92.5405     5498.54
92.5696     5510.15
92.5988     5303.79
92.6280     5359.64
92.6571     5388.26
92.6863     5305.24
92.7154     5279.94
92.7446     5241.96
92.7738     5325.89
92.8029     5321.70
92.8321     5333.35
92.8612     5346.37
92.8904     5265.04
92.9196     5269.33
92.9487     5303.83
92.9779     5339.92
93.0070     5394.47
93.0362     5455.02
93.0654     5314.10
93.0945     5347.67
93.1237     5492.68
93.1528     5271.27
93.1820     5379.72
93.2112     5409.49
93.2403     5287.26
93.2695     5281.81
93.2986     5304.52
93.3278     5251.74
93.3570     5513.04
93.3861     5408.70
93.4153     5350.71
93.4444     5478.91
93.4736     5529.12
93.5028     5407.00
93.5319     5340.67
93.5611     5386.43
93.5902     5368.56
93.6194     5308.15
93.6486     5258.62
93.6777     5252.25
93.7069     5309.30
93.7360     5323.79
93.7652     5401.25
93.7944     5410.08
93.8235     5382.57
93.8527     5455.52
93.8818     5451.91
93.9110     5501.73
93.9402     5371.47
93.9693     5389.16
93.9985     5440.29
94.0276     5312.64
94.0568     5248.36
94.0860     5377.04
94.1151     5355.90
94.1443     5391.63
94.1734     5347.30
94.2026     5286.25
94.2318     5436.95
94.2609     5331.91
94.2901     5422.76
94.3192     5444.93
94.3484     5348.80
94.3776     5532.69
94.4067     5275.24
94.4359     5389.27
94.4650     5340.65
94.4942     5310.89
94.5234     5376.27
94.5525     5412.04
94.5817     5434.87
94.6108     5398.60
94.6400     5505.79
94.6692     5358.18
94.6983     5378.11
94.7275     5426.61
94.7566     5543.75
94.7858     5443.53
94.8150     5406.59
94.8441     5532.36
94.8733     5525.40
94.9024     5453.22
94.9316     5362.61
94.9608     5327.41
94.9899     5370.19
95.0191     5425.09
95.0482     5393.58
95.0774     5373.20
95.1066     5415.88
95.1357     5469.61
95.1649     5354.30
95.1940     5277.02
95.2232     5317.22
95.2524     5401.75
95.2815     5420.75
95.3107     5253.42
95.3398     5375.95
95.3690     5361.62
95.3982     5485.66
95.4273     5421.92
95.4565     5320.43
95.4856     5125.69
95.5148     5169.64
95.5440     5329.70
95.5731     5279.86
95.6023     5325.11
95.6314     5397.58
95.6606     5326.51
95.6898     5387.69
95.7189     5393.07
95.7481     5441.22
95.7772     5340.10
95.8064     5382.27
95.8356     5192.78
95.8647     5370.45
95.8939     5375.02
95.9230     5375.42
95.9522     5249.29
95.9814     5153.31
96.0105     5278.53
96.0397     5179.88
96.0688     5353.34
96.0980     5361.95
96.1272     5334.18
96.1563     5428.28
96.1855     5356.64
96.2146     5444.11
96.2438     5383.93
96.2730     5300.44
96.3021     5248.09
96.3313     5298.41
96.3604     5221.76
96.3896     5294.64
96.4188     5303.02
96.4479     5269.08
96.4771     5230.14
96.5062     5306.20
96.5354     5285.18
96.5646     5290.46
96.5937     5435.90
96.6229     5382.85
96.6520     5295.37
96.6812     5345.63
96.7104     5398.49
96.7395     5279.26
96.7687     5296.02
96.7978     5358.76
96.8270     5302.51
96.8562     5416.49
96.8853     5427.33
96.9145     5442.31
96.9436     5317.75
96.9728     5377.70
97.0020     5445.91
97.0311     5485.86
97.0603     5504.92
97.0894     5327.43
97.1186     5399.81
97.1478     5318.21
97.1769     5442.06
97.2061     5463.54
97.2352     5453.49
97.2644     5383.52
97.2936     5320.10
97.3227     5240.96
97.3519     5295.46
97.3810     5392.57
97.4102     5296.74
97.4394     5347.75
97.4685     5507.56
97.4977     5530.39
97.5268     5545.92
97.5560     5536.64
97.5852     5434.14
97.6143     5398.09
97.6435     5552.91
97.6726     5398.28
97.7018     5423.08
97.7310     5431.76
97.7601     5331.03
97.7893     5400.89
97.8184     5352.63
97.8476     5392.07
97.8768     5410.32
97.9059     5469.58
97.9351     5522.54
97.9642     5478.31
97.9934     5453.42
98.0226     5449.07
98.0517     5325.24
98.0809     5377.00
98.1100     5390.19
98.1392     5296.51
98.1684     5186.38
98.1975     5218.90
98.2267     5317.27
98.2558     5249.31
98.2850     5280.90
98.3142     5344.61
98.3433     5357.81
98.3725     5296.30
98.4016     5398.95
98.4308     5465.61
98.4600     5414.52
98.4891     5401.55
98.5183     5555.29
98.5474     5282.93
98.5766     5261.66
98.6058     5235.37
98.6349     5237.16
98.6641     5295.32
98.6932     5148.53
98.7224     5349.07
98.7516     5366.08
98.7807     5313.23
98.8099     5328.39
98.8390     5223.12
98.8682     5157.72
98.8974     5233.50
98.9265     5255.08
98.9557     5154.54
98.9848     5272.01
99.0140     5207.82
99.0432     5155.95
99.0723     5206.93
99.1015     5304.77
99.1306     5265.95
99.1598     5209.78
99.1890     5249.34
99.2181     5173.38
99.2473     5155.09
99.2764     5261.03
99.3056     5236.82
99.3348     5205.35
99.3639     5211.95
99.3931     5221.88
99.4222     5245.10
99.4514     5269.30
99.4806     5264.70
99.5097     5240.64
99.5389     5373.93
99.5680     5191.81
99.5972     5265.19
99.6264     5136.54
99.6555     5149.87
99.6847     5200.33
99.7138     5209.72
99.7430     5251.06
99.7722     5224.39
99.8013     5199.04
99.8305     5403.15
99.8596     5342.79
99.8888     5218.04
99.9180     5292.83
99.9471     5183.40
99.9763     5156.06
100.0054     5245.66
100.0346     5356.44
100.0638     5306.61
100.0929     5304.40
100.1221     5264.98
100.1512     5322.05
100.1804     5325.98
100.2096     5193.49
100.2387     5240.76
100.2679     5261.96
100.2970     5255.74
100.3262     5298.86
100.3554     5276.31
100.3845     5355.99
100.4137     5269.18
100.4428     5226.36
100.4720     5237.10
100.5012     5190.99
100.5303     5179.61
100.5595     5148.53
100.5886     5158.90
100.6178     5223.66
100.6470     5199.95
100.6761     5265.44
100.7053     5195.82
100.7344     5305.12
100.7636     5302.01
100.7928     5263.39
100.8219     5295.70
100.8511     5345.39
100.8802     5238.69
100.9094     5173.98
100.9386     5164.51
100.9677     5196.53
100.9969     5333.25
101.0260     5291.04
101.0552     5160.06
101.0844     5153.65
101.1135     5158.13
101.1427     5200.38
101.1718     5219.50
101.2010     5141.14
101.2302     5236.46
101.2593     5267.30
101.2885     5258.56
101.3176     5236.64
101.3468     5158.11
101.3760     5192.92
101.4051     5195.41
101.4343     5070.72
101.4634     5124.58
101.4926     5315.16
101.5218     5304.01
101.5509     5361.14
101.5801     5329.01
101.6092     5175.17
101.6384     5125.98
101.6676     5111.42
101.6967     5201.78
101.7259     5231.68
101.7550     5211.60
101.7842     5297.19
101.8134     5228.47
101.8425     5219.38
101.8717     5259.92
101.9008     5282.83
101.9300     5168.89
101.9592     5124.57
101.9883     5123.89
102.0175     5289.10
102.0466     5242.44
102.0758     5411.55
102.1050     5367.18
102.1341     5366.32
102.1633     5226.15
102.1924     5072.09
102.2216     4916.46
102.2508     5161.91
102.2799     5233.88
102.3091     5117.60
102.3382     5107.00
102.3674     5258.27
102.3966     5185.74
102.4257     5175.65
102.4549     5341.15
102.4840     5447.63
102.5132     5364.22
102.5424     5261.09
102.5715     5313.95
102.6007     5144.01
102.6298     5271.69
102.6590     5273.20
102.6882     5179.97
102.7173     5095.11
102.7465     5174.18
102.7756     5202.78
102.8048     5145.33
102.8340     5338.05
102.8631     5247.63
102.8923     5143.96
102.9214     5259.53
102.9506     5193.66
102.9798     5231.71
103.0089     5364.63
103.0381     5324.32
103.0672     5113.55
103.0964     5319.16
103.1256     5286.83
103.1547     5217.75
103.1839     5180.92
103.2130     5108.58
103.2422     5131.01
103.2714     5183.90
103.3005     5206.56
103.3297     5324.38
103.3588     5194.18
103.3880     5078.64
103.4172     5150.81
103.4463     5211.85
103.4755     5243.79
103.5046     5165.88
103.5338     5155.92
103.5630     5154.72
103.5921     5207.74
103.6213     5225.04
103.6504     5244.17
103.6796     5182.85
103.7088     5202.81
103.7379     5336.53
103.7671     5250.84
103.7962     5139.96
103.8254     5257.61
103.8546     5123.99
103.8837     5088.98
103.9129     5184.44
103.9420     5140.68
103.9712     5165.18
104.0004     5209.63
104.0295     5210.34
104.0587     5183.96
104.0878     5185.92
104.1170     5148.18
104.1462     5120.20
104.1753     5185.43
104.2045     5248.56
104.2336     5232.20
104.2628     5238.92
104.2920     5149.45
104.3211     5117.61
104.3503     5127.71
104.3794     5193.41
104.4086     5104.06
104.4378     5016.92
104.4669     5094.83
104.4961     5167.26
104.5252     5009.26
104.5544     5155.99
104.5836     5283.04
104.6127     5269.97
104.6419     5172.92
104.6710     5126.98
104.7002     5088.52
104.7294     5118.54
104.7585     5099.18
104.7877     5105.95
104.8168     5121.46
104.8460     4993.90
104.8752     5095.60
104.9043     5267.83
104.9335     5293.86
104.9626     5150.69
104.9918     5156.00
105.0210     5187.00
105.0501     5112.10
105.0793     5090.38
105.1084     5119.04
105.1376     5178.19
105.1668     5213.33
105.1959     5345.90
105.2251     5152.70
105.2542     5084.13
105.2834     5176.10
105.3126     5197.49
105.3417     5065.17
105.3709     5132.37
105.4000     5114.82
105.4292     5040.27
105.4584     5099.82
105.4875     5135.29
105.5167     5217.34
105.5458     5307.18
105.5750     5273.69
105.6042     5083.50
105.6333     5085.81
105.6625     5101.53
105.6916     5094.92
105.7208     5230.31
105.7500     5152.34
105.7791     5172.75
105.8083     5134.56
105.8374     5110.91
105.8666     5114.79
105.8958     5098.41
105.9249     5117.75
105.9541     5066.66
105.9832     5135.44
106.0124     5154.21
106.0416     5113.57
106.0707     5130.66
106.0999     5182.45
106.1290     5161.63
106.1582     5252.36
106.1874     5213.84
106.2165     5149.34
106.2457     5113.15
106.2748     5235.11
106.3040     5244.09
106.3332     5259.59
106.3623     5283.27
106.3915     5142.06
106.4206     5096.08
106.4498     5102.78
106.4790     5164.34
106.5081     5204.84
106.5373     5213.00
106.5664     5177.89
106.5956     5152.54
106.6248     5157.90
106.6539     5125.81
106.6831     5149.78
106.7122     5074.67
106.7414     5179.47
106.7706     5198.82
106.7997     5100.61
106.8289     5094.04
106.8580     5132.83
106.8872     5079.02
106.9164     5041.45
106.9455     5208.85
106.9747     5201.19
107.0038     5116.64
107.0330     5127.34
107.0622     5224.18
107.0913     5112.22
107.1205     5228.64
107.1496     5082.00
107.1788     5114.28
107.2080     5169.63
107.2371     5172.46
107.2663     5092.06
107.2954     5104.28
107.3246     5112.09
107.3538     5077.30
107.3829     5032.04
107.4121     5084.25
107.4412     5120.24
107.4704     5143.85
107.4996     5070.22
107.5287     5092.18
107.5579     5037.97
107.5870     5026.86
107.6162     5131.07
107.6454     5176.09
107.6745     5081.74
107.7037     4886.95
107.7328     5019.59
107.7620     5029.28
107.7912     5073.14
107.8203     5089.16
107.8495     5066.17
107.8786     5076.88
107.9078     5200.35
107.9370     5073.46
107.9661     5167.80
107.9953     5153.31
108.0244     5123.23
108.0536     5101.93
108.0828     5120.77
108.1119     5035.41
108.1411     5077.53
108.1702     5207.06
108.1994     5049.33
108.2286     4977.53
108.2577     4981.23
108.2869     4993.83
108.3160     5055.09
108.3452     5057.98
108.3744     5116.42
108.4035     5217.29
108.4327     5231.49
108.4618     5243.56
108.4910     5059.16
108.5202     5097.95
108.5493     5053.72
108.5785     5119.30
108.6076     5186.40
108.6368     5121.13
108.6660     5140.56
108.6951     5227.00
108.7243     5119.61
108.7534     5111.71
108.7826     5106.59
108.8118     5152.54
108.8409     5108.23
108.8701     5032.45
108.8992     5026.80
108.9284     5089.50
108.9576     5115.76
108.9867     5159.57
109.0159     5059.38
109.0450     4982.17
109.0742     5010.02
109.1034     4964.39
109.1325     5066.50
109.1617     5085.93
109.1908     5034.50
109.2200     5043.80
109.2492     5160.18
109.2783     5146.26
109.3075     5040.13
109.3366     4915.34
109.3658     4931.12
109.3950     5110.69
109.4241     4816.21
109.4533     4937.12
109.4824     5071.60
109.5116     5031.17
109.5408     5004.79
109.5699     5103.62
109.5991     4925.40
109.6282     4747.22
109.6574     4833.61
109.6866     4910.96
109.7157     4987.09
109.7449     4984.21
109.7740     5117.78
109.8032     5058.03
109.8324     4985.61
109.8615     4938.67
109.8907     5010.76
109.9198     5065.76
109.9490     5019.22
109.9782     4972.56
110.0073     4891.45
110.0365     4808.39
110.0656     4886.83
110.0948     5000.50
110.1240     4932.99
110.1531     5084.00
110.1823     5014.91
110.2114     5006.71
110.2406     4844.85
110.2698     4975.99
110.2989     4969.95
110.3281     4891.89
110.3572     4870.15
110.3864     4889.01
110.4156     4816.05
110.4447     4851.67
110.4739     4852.46
110.5030     4823.68
110.5322     4873.30
110.5614     4916.83
110.5905     4973.36
110.6197     5000.15
110.6488     5058.52
110.6780     5080.32
110.7072     5008.44
110.7363     4891.35
110.7655     4900.30
110.7946     4850.18
110.8238     4896.88
110.8530     4968.94
110.8821     5060.43
110.9113     4934.95
110.9404     4963.51
110.9696     4921.99
110.9988     4834.02
111.0279     5148.55
111.0571     4958.30
111.0862     4927.10
111.1154     4789.94
111.1446     5055.81
111.1737     5066.22
111.2029     4985.02
111.2320     4970.52
111.2612     4888.58
111.2904     4953.70
111.3195     4979.78
111.3487     5056.83
111.3778     5015.14
111.4070     4906.49
111.4362     4921.76
111.4653     4954.36
111.4945     5041.32
111.5236     5180.31
111.5528     5169.22
111.5820     5076.40
111.6111     4986.21
111.6403     5012.44
111.6694     5005.22
111.6986     5147.74
111.7278     5087.73
111.7569     4901.82
111.7861     4936.37
111.8152     5025.49
111.8444     5114.75
111.8736     5208.56
111.9027     5103.42
111.9319     5137.98
111.9610     5084.51
111.9902     5021.40
112.0194     5197.44
112.0485     5138.57
112.0777     5107.40
112.1068     5104.36
112.1360     5105.52
112.1652     5114.52
112.1943     5033.70
112.2235     5018.32
112.2526     5070.00
112.2818     5150.06
112.3110     5170.25
112.3401     5121.29
112.3693     5123.47
112.3984     5152.97
112.4276     5127.55
112.4568     5012.34
112.4859     5130.78
112.5151     5085.31
112.5442     5129.56
112.5734     5017.89
112.6026     4869.56
112.6317     4911.82
112.6609     5107.83
112.6900     5101.53
112.7192     5191.62
112.7484     5066.53
112.7775     5184.77
112.8067     5268.19
112.8358     5247.45
112.8650     5180.27
112.8942     5166.43
112.9233     5030.80
112.9525     5023.19
112.9816     5044.63
113.0108     5044.08
113.0400     5005.73
113.0691     5026.34
113.0983     5200.51
113.1274     5125.67
113.1566     5013.22
113.1858     5077.07
113.2149     5109.98
113.2441     5159.16
113.2732     5204.84
113.3024     5158.74
113.3316     5306.75
113.3607     5063.43
113.3899     5164.39
113.4190     5080.00
113.4482     5047.19
113.4774     5089.95
113.5065     5317.09
113.5357     5336.76
113.5648     5225.22
113.5940     5280.88
113.6232     5251.84
113.6523     5337.10
113.6815     5334.53
113.7106     5343.89
113.7398     5449.96
113.7690     5392.67
113.7981     5301.66
113.8273     5212.55
113.8564     5379.69
113.8856     5520.57
113.9148     5553.66
113.9439     5489.08
113.9731     5401.99
114.0022     5457.85
114.0314     5584.48
114.0606     5647.75
114.0897     5640.54
114.1189     5780.76
114.1480     5821.09
114.1772     5885.84
114.2064     5961.14
114.2355     6003.90
114.2647     6079.02
114.2938     5975.45
114.3230     6112.51
114.3522     6343.99
114.3813     6424.06
114.4105     6485.27
114.4396     6579.90
114.4688     6696.45
114.4980     6849.27
114.5271     6975.43
114.5563     7130.70
114.5854     7332.06
114.6146     7671.65
114.6438     7954.70
114.6729     8212.07
114.7021     8546.18
114.7312     8822.58
114.7604     9016.16
114.7896     9430.13
114.8187     9514.91
114.8479     9729.91
114.8770     9706.93
114.9062     9828.89
114.9354     9792.70
114.9645     9623.72
114.9937     9307.98
115.0228     8864.62
115.0520     7890.72
115.0812     6762.60
115.1103     5571.40
115.1395     4279.26
115.1686     3075.59
115.1978     1869.03
115.2270     1079.04
115.2561      548.43
115.2853      275.53
115.3144      187.89
115.3436      135.07
115.3728      129.43
115.4019      117.86
115.4311       92.92
115.4602       74.98
115.4894       77.08
115.5186       71.34
115.5477       71.16
115.5769       66.07
115.6060       56.21
115.6352       47.15
115.6644       44.20
115.6935       45.67
115.7227       44.26
115.7518       40.37
115.7810       52.28
115.8102       45.15
115.8393       36.04
115.8685       37.84
115.8976       35.46
115.9268       41.15
115.9560       47.19
115.9851       41.63
116.0143       51.24
116.0434       37.37
116.0726       42.56
116.1018       43.91
116.1309       41.93
116.1601       40.78
116.1892       39.59
116.2184       33.11
116.2476       23.13
116.2767       28.41
116.3059       34.03
116.3350       43.07
116.3642       36.81
116.3934       30.57
116.4225       38.28
116.4517       31.53
116.4808       24.87
116.5100       34.35
116.5392       23.41
116.5683       36.98
116.5975       37.03
